185
185
185
185
185
185
185
185
185
165
185
195
225
215
190
200
205
220
235
240
215
205
225
240
255
245
245
230
230
250
260
250
225
220
225
235
245
245
245
225
225
250
260
270
245
230
235
250
260
260
240
245
245
275
295
280
260
250
270
275
290
265
250
250
250
255
250
225
205
220
220
225
225
225
215
205
210
245
250
250
235
220
235
235
230
235
230
210
230
235
235
250
235
225
230
260
265
260
235
220
235
240
250
240
235
235
245
245
255
235
200
205
220
255
265
280
285
270
260
220
175
120
60
-10
-55
-120
-125
-155
-165
-155
-115
-55
-15
25
65
130
190
235
260
245
235
220
220
230
250
240
220
205
240
245
270
255
215
215
215
240
240
245
240
225
245
250
260
235
220
200
210
215
245
235
210
200
205
220
245
230
220
200
210
215
220
215
180
185
190
210
215
200
195
185
190
210
225
205
195
195
215
225
255
230
230
230
235
260
265
265
245
255
260
280
300
290
280
260
270
305
295
305
290
285
295
320
330
310
305
290
285
300
320
310
275
280
300
310
330
325
305
315
310
345
335
335
335
325
340
355
360
370
360
350
360
370
380
355
325
310
315
325
355
335
315
310
330
345
355
365
355
355
370
390
385
400
395
370
400
410
430
435
415
425
445
450
470
450
445
450
455
470
500
490
480
490
505
510
535
525
530
515
550
560
570
570
575
590
610
655
670
665
625
585
550
535
510
445
380
320
310
320
355
380
440
465
515
585
675
745
785
790
815
825
820
825
825
810
815
845
855
860
845
830
835
850
870
865
855
845
835
845
860
855
830
830
830
855
880
850
830
815
820
830
855
845
820
805
810
810
820
810
790
770
785
790
795
805
770
755
775
790
800
780
765
760
785
780
775
770
750
765
765
795
795
785
785
775
775
785
795
795
795
775
770
790
805
795
785
765
775
785
800
780
760
755
775
785
800
790
750
730
740
760
770
765
740
740
740
750
765
760
750
730
745
770
780
750
745
730
750
755
755
750
740
725
730
720
700
705
675
665
680
690
695
675
660
660
675
690
715
715
690
670
665
680
685
675
665
670
665
680
695
680
660
655
665
690
685
675
655
645
650
665
665
655
640
625
625
640
650
645
620
615
635
645
635
650
655
645
655
635
590
530
485
415
370
320
260
210
165
150
175
230
275
315
330
380
450
540
585
615
595
600
600
590
595
575
570
570
580
590
605
575
560
540
555
570
585
575
540
540
545
565
580
560
540
530
530
545
560
530
525
515
505
520
520
500
500
500
505
505
485
450
440
440
435
455
460
430
430
420
420
435
440
425
430
415
430
435
440
435
420
420
430
445
460
440
435
430
440
460
465
480
440
460
465
475
475
460
460
450
445
460
465
465
445
450
460
460
480
470
455
455
450
460
485
445
435
430
445
440
445
430
405
400
395
430
445
445
445
425
430
455
475
455
450
430
430
440
440
440
435
420
420
420
430
410
400
390
385
400
395
380
355
345
345
360
380
370
370
375
375
385
385
375
360
330
350
370
365
335
320
325
340
355
355
350
350
345
355
380
380
350
335
300
315
345
345
330
310
305
310
325
325
300
300
300
315
335
370
370
385
345
305
230
165
75
5
-65
-110
-110
-100
-90
-80
-40
25
90
140
185
220
230
245
285
280
265
250
245
260
260
260
260
260
255
275
295
315
290
255
250
250
265
265
245
225
235
235
250
255
240
230
215
240
255
240
240
210
195
190
225
220
200
165
170
190
210
215
190
160
165
175
185
205
175
170
165
160
185
190
185
170
165
180
210
225
215
205
195
215
230
240
215
195
200
205
240
245
220
205
200
220
230
260
240
215
200
215
225
255
250
230
210
205
215
235
235
210
220
220
240
240
215
195
205
220
230
240
210
200
215
225
240
235
235
215
220
225
230
250
255
230
215
210
195
180
170
150
140
160
160
195
190
165
145
150
175
200
165
145
130
160
175
185
180
170
160
170
185
195
185
170
160
170
180
200
190
165
160
155
165
175
165
145
130
155
160
175
150
160
135
165
165
185
185
165
170
205
235
215
165
110
60
30
-10
-65
-120
-175
-205
-190
-150
-145
-135
-110
-85
-25
25
65
105
125
140
150
150
160
135
125
105
140
150
160
155
145
130
120
160
165
160
145
135
145
145
170
140
155
125
125
125
140
120
130
115
115
125
135
125
110
90
90
100
120
110
90
90
95
90
85
55
25
40
60
75
95
70
50
45
45
55
65
50
40
25
50
65
110
110
95
95
95
120
135
125
100
65
100
140
150
140
105
85
105
135
135
125
115
95
110
115
110
95
100
105
115
120
115
100
100
120
135
155
115
85
60
80
100
140
130
115
100
85
105
110
130
105
95
105
120
135
125
120
105
125
115
110
105
95
80
75
90
75
50
55
45
55
75
100
85
85
75
70
75
80
90
65
60
65
95
90
95
80
75
75
85
95
100
100
95
110
115
135
110
75
55
60
55
70
65
75
55
75
90
80
90
85
105
115
140
145
105
60
10
-30
-55
-115
-165
-245
-280
-285
-255
-225
-185
-140
-110
-75
-30
45
50
70
85
105
120
115
85
50
50
65
85
100
90
75
65
80
105
100
80
80
70
100
115
105
100
75
75
80
95
95
90
80
70
75
80
100
100
80
70
70
80
70
55
45
50
55
70
90
65
35
35
45
75
80
65
45
45
65
70
90
75
60
60
85
110
115
105
110
105
110
135
140
130
115
110
145
165
170
165
155
120
110
140
145
135
130
125
130
150
145
140
125
120
135
165
155
155
115
120
145
160
160
155
150
145
155
185
175
185
160
160
165
195
190
180
155
155
165
175
180
160
125
125
135
155
160
135
115
100
110
120
145
145
130
140
145
160
160
155
135
140
145
160
165
155
160
140
160
170
180
155
130
135
155
165
180
180
155
145
150
165
155
155
150
145
155
160
165
150
125
140
155
180
180
185
180
190
155
160
125
90
45
-20
-80
-125
-180
-225
-245
-245
-240
-190
-150
-130
-115
-85
-5
95
145
145
135
135
155
160
155
165
145
135
150
165
170
170
165
145
155
160
155
155
140
135
165
170
160
145
115
105
130
155
160
135
115
100
105
115
140
125
110
90
100
105
115
105
85
85
100
120
115
100
50
45
60
75
100
90
80
55
60
100
100
95
75
80
95
140
170
150
115
80
100
130
160
145
135
130
135
145
135
145
140
130
135
160
160
145
130
100
135
160
155
140
125
115
140
165
155
160
130
130
140
150
155
165
145
155
180
185
185
165
150
160
165
175
180
175
155
145
160
150
130
120
100
95
125
120
135
120
115
130
145
145
140
135
120
110
115
135
145
145
125
125
140
150
155
135
130
110
135
125
155
130
135
120
135
150
155
135
115
115
105
125
115
110
115
140
155
180
160
105
40
0
-45
-85
-135
-205
-290
-325
-320
-290
-240
-210
-175
-145
-65
45
100
135
130
120
130
145
150
135
120
100
105
140
145
110
85
85
100
130
140
120
115
115
100
120
130
110
95
85
80
90
110
100
95
80
55
70
75
70
65
60
70
55
60
40
40
30
40
55
55
40
25
20
15
45
60
35
15
15
45
80
90
80
60
40
60
85
80
95
75
80
90
105
100
105
95
90
100
115
135
110
90
80
95
100
105
105
90
70
100
130
165
185
165
130
90
95
85
70
70
65
85
105
120
120
100
115
120
130
130
120
100
110
120
130
135
105
90
70
80
105
105
100
95
80
100
105
95
95
75
80
85
105
120
100
100
95
75
95
105
90
75
90
85
95
90
95
105
110
105
120
130
115
110
110
110
115
110
105
95
95
120
110
115
110
95
110
140
165
170
170
95
40
0
-45
-95
-165
-235
-305
-340
-310
-290
-255
-205
-175
-125
-65
20
60
90
105
120
135
130
105
75
80
95
120
130
135
120
115
135
125
120
100
70
75
85
100
85
105
95
105
100
110
95
90
55
75
80
100
85
55
35
55
60
50
45
45
45
25
30
35
25
30
15
25
45
50
55
35
20
35
55
65
75
65
55
35
45
70
90
85
75
70
100
130
120
80
80
110
125
120
115
110
115
125
120
125
115
120
95
110
120
135
145
140
100
90
100
110
130
115
100
100
120
145
140
125
110
135
155
180
170
155
155
135
140
155
150
125
105
110
120
125
115
95
95
115
130
140
135
125
85
95
110
135
125
135
140
130
130
135
140
125
100
125
120
120
110
105
80
85
95
120
115
120
100
110
105
115
135
115
105
120
130
145
130
110
100
135
150
185
185
160
100
45
-15
-40
-100
-160
-205
-255
-255
-240
-210
-195
-150
-130
-80
-5
70
125
105
105
115
115
120
90
85
70
80
125
135
115
80
65
100
115
105
105
100
95
105
110
105
95
85
70
70
85
75
60
45
45
65
85
60
40
35
35
85
90
90
70
70
35
25
30
30
10
20
5
30
35
35
10
5
-5
25
30
35
40
35
35
60
90
85
80
70
70
60
60
75
85
105
105
125
120
140
135
120
105
100
110
115
120
115
110
130
135
150
140
110
75
75
110
125
135
115
105
115
115
130
115
120
135
150
165
160
150
145
140
145
165
170
155
135
110
120
100
95
85
65
70
60
70
80
85
70
70
90
110
140
125
90
70
80
120
125
105
75
75
85
110
110
95
100
90
100
110
90
110
95
80
105
145
140
115
80
60
90
100
110
90
80
80
105
100
120
115
110
105
80
50
-25
-90
-190
-220
-255
-260
-255
-240
-230
-180
-125
-70
-35
15
65
85
100
100
105
110
105
95
90
105
105
95
75
65
100
115
125
105
65
70
75
75
70
60
50
50
95
90
95
75
65
75
80
100
80
45
45
45
55
55
50
20
25
15
20
40
15
-10
-15
0
5
50
45
40
40
55
85
85
40
5
15
30
40
65
75
90
65
70
75
90
100
85
75
50
70
90
95
90
75
80
90
115
130
120
90
75
115
120
115
80
55
60
95
120
115
85
85
95
105
120
120
130
135
105
115
145
130
125
80
75
90
90
85
75
55
40
55
65
75
65
55
80
95
95
100
55
45
75
95
115
125
100
70
80
110
110
70
50
30
45
60
85
105
95
95
75
80
105
135
145
115
70
60
65
100
110
75
60
55
80
115
130
80
20
-25
-60
-80
-140
-210
-295
-335
-350
-345
-345
-335
-280
-215
-140
-55
20
75
100
115
100
65
20
20
35
45
70
80
90
80
85
90
80
80
60
15
-20
0
15
35
25
30
50
85
60
45
20
20
20
15
30
40
30
-10
-20
0
35
35
25
-10
-40
-35
15
15
-10
-30
-30
10
50
30
-15
-45
-30
0
35
45
10
5
10
15
60
50
20
5
20
70
80
60
35
25
15
40
80
85
85
55
25
35
50
60
50
60
65
75
80
65
25
30
50
90
85
60
40
25
35
70
80
65
55
45
65
110
135
140
95
70
50
45
65
65
50
20
0
0
20
20
10
15
10
15
45
35
45
55
90
80
65
20
-10
-10
5
50
70
65
55
60
55
40
45
65
80
75
65
75
70
80
80
55
15
20
55
70
60
35
5
25
35
55
40
35
35
50
75
65
65
30
-15
-50
-75
-125
-180
-280
-345
-380
-350
-330
-320
-325
-275
-170
-80
-10
5
15
30
70
70
25
5
-25
-20
-15
5
15
-5
15
10
30
35
30
5
0
0
15
35
30
30
15
10
15
45
40
5
-10
-5
0
10
-5
-5
-15
-10
-10
-10
-10
-35
-50
-50
-35
0
0
-20
-45
-50
-45
-10
-5
-15
-35
-40
-20
-15
-25
0
0
15
45
90
95
100
65
45
55
45
30
35
20
45
60
55
55
45
35
25
45
80
90
85
50
30
35
45
55
35
20
10
50
70
50
45
40
45
50
75
80
65
75
75
80
95
115
115
90
60
55
60
90
65
45
30
35
55
35
10
-25
-10
-5
15
10
15
-10
5
15
45
55
65
30
25
15
0
-5
0
15
30
45
60
40
25
15
25
60
60
60
30
30
25
35
55
50
30
20
15
35
60
50
25
5
35
40
75
80
80
75
60
70
35
-35
-150
-225
-265
-315
-350
-350
-325
-285
-255
-235
-185
-125
-70
-30
0
10
25
40
35
10
-15
-15
5
20
10
10
10
30
40
55
40
20
20
35
35
30
-10
-5
15
20
15
-10
-25
-20
-10
5
10
-10
-45
-65
-30
-25
-35
-60
-65
-85
-70
-70
-40
-55
-60
-70
-60
-60
-55
-60
-55
-70
-40
-30
-20
-20
-60
-75
-70
-25
-25
-35
-25
-40
-10
25
60
55
30
10
0
-15
15
-10
-5
-25
-25
-15
0
0
0
-25
-5
35
55
30
5
-10
-5
15
25
10
-10
-15
0
0
40
75
95
80
30
25
30
20
5
-35
-25
0
20
65
45
25
15
25
30
0
-5
-30
-20
-40
-35
-40
-35
-40
-30
-20
10
-5
-15
-25
-10
20
20
15
0
-5
-10
10
10
20
5
-15
-15
-5
20
30
20
0
0
20
30
20
5
-20
-10
5
20
30
5
-10
-15
0
30
35
55
30
25
40
50
65
55
25
-20
-45
-75
-120
-195
-250
-285
-315
-345
-350
-355
-355
-310
-235
-185
-130
-85
-50
5
40
40
10
-25
-45
-35
-25
-10
-5
-25
-15
-15
20
10
-5
0
5
5
35
45
30
0
-30
-25
-5
15
10
-30
-40
-35
-20
-5
-5
-35
-55
-60
-30
-40
-45
-50
-50
-30
-40
-45
-70
-75
-65
-50
-35
-25
-60
-80
-85
-85
-55
-45
-60
-80
-95
-85
-60
-35
-20
0
-25
-5
-10
-5
-25
-25
-25
-20
15
25
30
0
-10
0
20
45
45
30
5
10
15
15
10
5
-5
15
20
50
60
75
60
40
15
20
20
10
0
-5
10
25
35
65
55
45
50
60
70
55
35
60
75
80
55
55
30
20
50
45
55
25
10
25
15
25
-10
-40
-40
-35
-15
10
-5
-5
-30
-25
10
10
15
-10
-10
-10
10
50
60
35
-10
0
35
45
60
20
-10
-25
-30
-15
-15
-15
-20
-10
20
65
60
30
-10
-30
0
20
35
10
5
5
15
35
50
35
15
10
30
70
50
15
-45
-65
-65
-60
-120
-180
-250
-285
-300
-310
-315
-310
-305
-270
-245
-195
-155
-125
-110
-55
-15
25
25
20
-5
-35
-30
0
-5
-20
-35
-25
5
10
0
-5
-15
-20
-10
-25
-30
-35
-25
5
35
55
50
5
-50
-75
-70
-45
-40
-30
-55
-40
-35
-35
-65
-80
-75
-60
-45
-30
-65
-115
-140
-115
-110
-90
-100
-105
-105
-105
-105
-80
-70
-80
-100
-105
-80
-75
-85
-85
-85
-70
-55
-25
-40
-50
-65
-65
-40
-35
-55
-55
-40
-30
-5
25
30
20
-15
-30
-15
15
-5
-45
-50
-25
-5
5
-15
-25
-35
-15
-10
0
-20
-30
-25
-20
10
-10
-15
-20
-25
-20
5
10
10
0
-35
-50
-5
20
5
-15
-30
-5
10
35
60
35
10
-5
10
0
-30
-50
-90
-70
-45
-20
-25
-30
-30
-20
15
30
5
-45
-80
-60
-30
-10
-10
-25
-60
-55
-50
-15
-15
-30
-60
-70
-65
-50
-40
-60
-55
-35
-5
-5
10
-25
-60
-65
-90
-55
-40
-45
-35
-45
-30
-35
-50
-65
-60
-50
-45
-25
-15
-40
-20
10
65
75
45
-35
-145
-195
-220
-215
-250
-330
-420
-470
-490
-465
-475
-455
-415
-370
-320
-245
-185
-105
-60
-30
-15
-5
-35
-50
-50
-45
-20
-10
-10
-15
-25
-25
-15
-5
0
-15
-50
-40
-10
35
25
10
-35
-55
-45
-20
-30
-65
-60
-65
-55
-30
-40
-35
-60
-70
-70
-45
-50
-65
-80
-75
-60
-40
-50
-35
-50
-60
-90
-80
-75
-100
-125
-135
-125
-110
-110
-110
-130
-125
-100
-80
-75
-90
-105
-110
-105
-65
-35
-50
-35
-45
-40
-25
-15
-30
-25
-5
10
15
15
-10
-15
-5
-15
-10
-5
-30
-35
-5
0
25
15
0
-10
5
15
55
50
10
-35
-45
-10
30
25
5
-5
5
50
110
90
60
40
45
45
60
65
50
30
15
-5
-5
-20
-35
-25
-45
-5
25
-5
-20
-40
-35
-5
25
35
30
20
20
5
20
40
45
25
0
0
5
-25
-35
-35
-30
-10
5
-5
15
35
55
75
60
30
-15
-5
-15
-30
-55
-80
-65
-40
-5
25
20
15
25
20
25
30
35
50
60
40
15
15
-25
-45
-95
-170
-245
-300
-355
-395
-405
-430
-455
-390
-260
-180
-115
-70
-60
-65
-75
-40
-30
-35
-55
-45
10
30
40
0
10
-5
-15
-15
-20
10
0
25
30
30
25
10
-25
-65
-45
-25
-15
-35
-55
-50
-30
-25
-15
-25
-40
-30
-10
-25
-45
-75
-55
0
35
-20
-115
-155
-135
-80
-45
-60
-65
-60
-60
-75
-110
-135
-145
-110
-65
-30
0
-15
-85
-160
-155
-105
-70
-40
-25
-40
-45
-40
-30
-40
-50
-60
-45
-15
0
0
25
40
95
125
125
45
-35
-80
-75
-35
0
35
40
25
20
30
50
30
-25
-60
-55
-40
-10
-35
-35
-40
-15
-10
20
10
-25
-20
-5
20
15
-10
-5
5
20
50
60
50
15
-30
-35
-10
10
-10
5
10
-10
-20
-30
-60
-70
-70
-65
-60
-35
-5
5
-5
-5
0
35
30
-15
-60
-65
-35
-20
-30
-45
-50
-25
-30
-20
-35
-30
-20
-20
-5
35
45
30
-15
-70
-80
-45
10
-5
-20
-40
-20
5
-5
-15
-35
-45
-40
5
25
40
30
40
40
30
-25
-70
-170
-225
-255
-260
-310
-370
-430
-435
-415
-355
-305
-285
-285
-230
-165
-85
-40
-25
-25
-30
-25
-10
-15
-30
-50
-60
-35
-15
-35
-70
-80
-45
-5
35
-5
-20
-35
-30
-30
-35
-80
-105
-110
-85
-45
-30
-45
-60
-70
-55
-50
-30
-55
-75
-90
-95
-80
-55
-25
-25
-55
-80
-85
-65
-45
-45
-90
-130
-100
-70
-80
-80
-80
-40
-10
20
-20
-75
-140
-130
-75
-20
-10
-15
-30
-15
5
50
25
-10
-35
-40
-15
-15
-5
0
0
5
35
35
10
-20
-15
-25
-5
30
30
20
15
25
60
75
45
35
40
50
70
55
40
25
40
50
85
115
115
90
75
50
10
-20
-15
0
-5
5
40
80
85
65
80
85
60
20
10
30
70
75
45
20
30
25
30
55
95
90
75
5
-20
5
50
75
60
45
20
15
35
50
30
20
35
50
75
110
105
50
25
35
95
110
70
60
90
140
140
70
-25
-90
-130
-180
-235
-285
-345
-390
-405
-370
-275
-195
-135
-95
-20
60
90
95
70
30
5
0
35
60
65
40
25
40
70
90
105
100
80
85
100
125
130
110
80
65
100
135
130
85
45
5
15
35
30
50
45
50
65
70
45
15
5
0
30
30
15
-5
-15
5
20
35
35
40
35
20
35
35
10
10
20
35
45
65
75
75
65
55
50
70
65
75
75
100
125
125
135
85
90
95
85
125
120
115
100
100
115
135
105
80
65
90
100
115
110
95
100
115
130
135
115
135
150
140
145
145
150
155
160
165
170
180
155
135
120
110
115
140
125
85
65
60
105
105
95
90
85
75
75
95
105
75
50
60
85
120
115
110
65
90
110
125
100
70
70
90
115
145
135
115
75
65
90
95
135
140
110
70
45
80
95
100
100
100
165
205
170
105
30
-5
-75
-120
-190
-270
-315
-330
-305
-275
-240
-165
-140
-115
-60
50
130
130
65
75
45
55
65
75
55
60
70
110
110
85
55
35
60
75
80
60
35
20
25
60
75
60
45
50
90
105
100
65
30
-10
15
35
25
15
-5
10
-5
15
50
55
10
-50
-65
-35
-5
-5
-15
-30
-25
5
-15
-50
-15
20
45
40
50
45
70
95
85
55
45
60
80
75
70
75
75
70
80
105
125
145
90
25
-10
35
55
70
70
95
95
70
35
25
40
35
25
30
55
75
65
45
45
75
110
135
160
180
160
105
55
35
50
80
85
95
75
55
35
-25
-75
-100
-55
-10
20
30
20
-15
-25
-20
-20
-5
-30
-35
-25
-15
0
-20
-25
-25
15
25
10
0
-30
-60
-70
-25
15
15
-10
-35
-55
-50
-30
-45
-80
-110
-70
-50
-80
-95
-115
-85
-70
-40
-15
0
-30
-75
-110
-140
-210
-315
-425
-505
-535
-495
-445
-430
-420
-350
-265
-190
-120
-100
-95
-75
-75
-135
-160
-145
-115
-110
-85
-90
-110
-125
-125
-110
-100
-105
-130
-135
-145
-120
-135
-115
-100
-90
-110
-140
-180
-155
-170
-165
-195
-210
-220
-185
-140
-100
-100
-125
-205
-230
-210
-200
-205
-210
-220
-230
-210
-205
-205
-205
-200
-200
-225
-225
-245
-230
-215
-190
-190
-225
-240
-260
-235
-195
-170
-185
-205
-200
-155
-120
-125
-160
-215
-245
-200
-120
-70
-115
-215
-240
-220
-190
-190
-215
-225
-205
-200
-190
-195
-200
-165
-115
-50
-75
-140
-195
-240
-245
-225
-195
-185
-170
-175
-185
-170
-140
-155
-160
-155
-150
-140
-120
-120
-110
-115
-140
-185
-210
-235
-270
-275
-255
-245
-235
-230
-255
-235
-190
-140
-110
-120
-150
-175
-215
-260
-265
-250
-275
-255
-235
-200
-160
-170
-155
-170
-160
-155
-135
-165
-205
-255
-260
-220
-185
-135
-130
-140
-185
-245
-270
-275
-270
-250
-190
-100
-50
-70
-160
-250
-265
-270
-285
-360
-450
-530
-550
-565
-540
-555
-520
-485
-445
-395
-310
-215
-170
-195
-205
-200
-145
-125
-145
-175
-180
-175
-185
-265
-320
-295
-220
-175
-130
-95
-110
-170
-235
-260
-230
-235
-240
-260
-255
-220
-170
-200
-250
-275
-235
-150
-110
-120
-160
-200
-210
-260
-305
-330
-295
-255
-220
-220
-220
-230
-225
-230
-225
-175
-140
-125
-180
-215
-205
-175
-210
-260
-280
-240
-170
-105
-100
-80
-90
-145
-195
-190
-170
-160
-145
-105
-90
-130
-160
-170
-170
-175
-155
-105
-90
-110
-140
-190
-180
-140
-65
-20
-50
-160
-260
-270
-220
-155
-95
-60
-45
-75
-105
-125
-120
-100
-50
-65
-80
-105
-135
-160
-150
-85
-45
-60
-140
-235
-255
-235
-180
-170
-145
-120
-110
-90
-85
-70
-65
-85
-120
-145
-150
-145
-135
-130
-90
-110
-125
-110
-65
-65
-135
-230
-240
-200
-170
-165
-150
-85
-5
-5
-25
-95
-125
-140
-135
-145
-165
-165
-140
-95
-50
-50
-80
-90
-100
-135
-135
-180
-250
-335
-410
-485
-500
-535
-550
-525
-460
-395
-345
-305
-250
-225
-205
-180
-155
-150
-130
-105
-60
-40
-5
-30
-65
-140
-210
-175
-130
-100
-110
-110
-80
-50
-40
-70
-80
-35
10
-5
-100
-205
-245
-230
-185
-175
-180
-195
-165
-130
-110
-85
-55
-30
-70
-110
-120
-90
-115
-165
-225
-260
-250
-155
-65
-30
-60
-100
-70
-60
-105
-185
-215
-170
-135
-145
-190
-190
-165
-105
-65
-30
-35
-25
-55
-80
-100
-90
-75
-20
0
-30
-85
-100
-90
-70
-125
-155
-135
-105
-35
-20
0
-5
-30
-50
-55
-70
-110
-125
-75
-5
35
5
-35
-75
-75
-65
-40
-10
-15
-65
-80
-30
25
5
-55
-65
-60
-30
20
10
-35
-80
-80
-55
-20
-40
-45
-15
-15
-50
-85
-120
-110
-120
-85
-30
35
60
35
-65
-100
-95
-45
-55
-65
-80
-55
-10
0
-35
-95
-120
-95
-70
-40
-40
-45
-35
-15
10
20
-5
-15
5
-5
-20
-40
-65
-90
-85
-65
-35
-5
15
-20
-80
-130
-145
-170
-200
-235
-285
-340
-375
-395
-415
-390
-330
-275
-230
-165
-100
-95
-110
-95
-35
-25
-30
-60
-85
-100
-70
-20
-15
-25
-30
-30
-15
-25
-55
-70
-80
-45
-25
-35
-45
-60
-80
-65
-40
-15
-20
-5
-5
0
-10
-15
5
-10
-35
-70
-110
-130
-125
-105
-90
-85
-100
-80
-95
-95
-85
-40
-40
-40
-75
-90
-70
-45
-20
-25
-65
-65
-65
-60
-45
-35
-25
-35
-20
-20
-5
45
45
20
0
-5
-5
35
40
25
10
-40
-50
-65
-50
-40
-20
0
30
85
130
165
145
125
50
-20
-70
-65
-20
5
20
20
10
0
5
25
50
75
70
100
120
145
150
120
115
95
70
65
70
75
95
95
70
85
70
65
60
35
-10
0
-5
25
65
70
75
75
65
65
30
45
30
35
60
40
40
50
65
90
105
110
75
60
35
65
95
100
75
45
25
35
55
75
65
45
30
60
95
115
105
85
85
90
145
145
110
65
50
70
90
105
100
125
120
95
60
30
-5
-45
-85
-85
-100
-145
-195
-265
-265
-195
-120
-90
-70
-55
5
65
90
115
85
75
65
80
95
130
125
85
25
30
45
110
155
170
160
145
145
150
150
120
80
55
60
75
70
50
45
75
100
110
115
120
115
135
145
165
130
80
60
75
120
100
50
10
50
60
115
130
115
80
50
50
60
95
85
70
75
95
125
105
80
45
40
65
110
130
110
105
85
75
90
120
145
150
140
130
150
155
185
180
190
205
205
185
145
100
85
85
125
145
135
155
145
165
175
195
175
170
145
170
225
220
170
70
35
60
115
160
155
150
170
175
205
240
225
210
220
245
240
230
195
155
150
160
170
175
165
140
155
150
135
105
75
75
110
135
170
165
150
145
140
175
185
190
155
145
130
130
145
155
175
170
150
155
185
200
170
120
90
90
125
140
130
125
125
135
145
170
185
155
150
130
145
160
180
165
175
215
235
220
170
105
45
5
5
-5
-45
-75
-120
-100
-105
-65
-10
55
70
90
120
135
130
120
115
130
160
170
175
135
115
135
165
170
170
145
150
165
180
185
185
160
155
160
175
190
180
170
165
170
170
180
155
135
130
135
155
180
175
155
130
165
160
155
140
115
110
120
170
185
155
150
145
130
125
125
125
95
85
90
115
145
150
150
150
150
155
125
120
85
80
90
90
120
105
85
75
90
110
120
95
95
95
110
105
115
90
75
85
105
115
115
100
95
65
85
105
100
85
80
90
95
95
85
105
90
120
115
115
105
100
100
100
135
155
155
160
140
115
110
100
95
115
105
95
90
95
100
105
65
55
85
115
155
170
135
125
115
115
125
115
105
85
90
100
95
95
90
95
125
145
140
125
110
90
115
145
170
155
135
125
135
160
165
140
105
100
110
125
130
125
95
110
130
135
135
150
150
150
185
180
145
90
50
40
25
5
-25
-90
-170
-165
-90
-55
-10
-5
-5
-10
35
90
120
135
165
165
150
145
120
145
155
155
155
160
155
95
70
55
80
115
120
125
95
65
60
95
135
120
130
160
185
185
175
125
110
105
110
130
130
100
80
55
50
75
80
90
80
70
75
70
85
100
90
75
80
95
105
105
65
55
60
90
105
120
90
100
100
125
130
115
90
65
80
85
105
145
160
175
190
195
185
170
140
160
170
175
145
110
95
80
105
155
175
185
145
120
140
160
155
150
120
95
120
170
195
205
185
150
155
135
135
120
145
175
200
180
170
150
150
180
205
200
175
155
155
145
140
130
105
130
115
135
145
130
120
95
70
80
120
165
230
250
240
195
155
145
145
160
150
140
130
105
85
90
80
110
170
210
245
235
175
115
85
125
190
210
185
145
130
155
170
185
190
220
240
220
245
235
185
150
95
40
20
5
-10
-55
-125
-120
-100
-80
-75
-80
-30
-10
10
35
55
65
95
120
115
145
150
185
205
270
250
235
195
170
155
185
210
210
195
160
135
135
155
175
135
135
140
175
195
165
170
160
185
210
205
180
150
115
115
145
170
150
140
145
165
185
195
155
115
95
110
155
180
190
190
200
190
180
175
140
95
95
125
195
205
160
140
125
145
190
180
155
160
160
185
210
220
225
210
190
175
165
175
185
195
205
205
195
155
150
155
160
165
170
215
250
250
235
245
255
255
205
175
185
210
210
215
210
195
175
180
180
180
155
125
120
140
150
190
205
210
205
215
220
210
170
130
135
175
210
225
230
200
175
190
235
245
210
160
150
180
225
255
235
185
140
165
205
235
210
185
175
180
190
205
185
175
155
175
185
195
205
165
180
215
290
345
325
250
160
95
120
105
95
40
-20
-80
-105
-90
-105
-105
-80
-30
35
70
100
100
120
120
145
180
200
205
215
210
160
145
135
165
180
210
220
200
165
175
215
255
265
230
205
190
205
235
255
235
210
205
155
185
225
225
220
215
215
230
240
200
165
160
160
195
205
210
205
215
255
285
295
265
225
185
180
225
255
275
195
125
80
75
120
160
185
160
170
220
300
320
270
190
155
180
215
210
165
170
195
250
290
280
225
210
210
255
270
270
240
195
165
200
230
195
145
150
220
295
355
340
320
275
225
210
220
240
255
260
200
145
145
190
220
245
250
245
245
255
240
195
165
165
190
215
230
235
215
230
230
235
190
185
200
220
265
270
275
260
250
240
255
240
210
190
180
195
205
200
235
290
290
260
205
155
145
170
200
225
240
210
215
210
245
265
250
245
260
295
290
250
165
115
100
80
20
-65
-155
-195
-215
-250
-280
-250
-160
-40
80
140
165
170
190
200
215
195
200
195
240
290
335
355
310
255
185
130
165
220
255
245
240
250
270
250
215
200
190
195
205
205
175
170
190
175
170
165
215
275
330
295
220
150
160
185
180
140
90
90
100
135
155
175
170
165
140
180
230
250
205
145
95
130
165
175
160
190
225
265
245
220
205
245
280
305
280
270
260
245
250
235
200
170
180
180
220
255
240
200
185
170
160
215
275
295
245
205
240
290
290
250
210
195
185
220
280
285
245
185
195
260
340
385
365
275
180
145
120
140
155
170
200
285
345
350
290
225
165
170
200
230
250
275
320
335
295
225
155
160
210
225
200
160
175
205
235
230
210
215
195
185
165
160
195
225
275
345
355
295
195
115
110
120
105
145
195
190
195
210
225
250
275
270
235
210
250
280
235
150
80
55
35
-5
-55
-120
-190
-235
-250
-230
-190
-155
-100
-20
90
220
265
230
170
105
95
130
150
185
230
215
225
250
285
300
280
220
185
175
200
210
190
185
210
270
305
300
255
205
160
130
140
160
175
170
155
175
210
225
215
195
170
190
200
195
165
125
140
170
225
225
175
125
120
150
185
190
140
125
145
165
205
240
230
210
185
225
245
220
190
165
175
235
255
265
270
250
240
240
235
240
230
220
235
265
270
285
285
280
280
300
285
285
295
290
270
270
265
255
250
240
245
245
290
320
295
275
265
280
310
315
320
315
305
325
325
340
330
305
280
300
300
270
240
220
200
240
255
270
250
260
275
300
310
300
280
230
235
240
265
290
270
285
315
325
325
305
290
300
330
330
320
295
285
290
305
320
325
330
325
315
310
310
315
320
315
310
315
325
350
360
405
415
410
340
255
205
145
40
-40
-90
-120
-110
-55
-15
30
105
200
275
295
285
330
365
380
355
330
305
300
295
315
340
350
335
330
340
375
370
340
315
330
355
360
355
350
310
300
325
345
355
345
320
270
295
330
365
325
290
270
270
305
305
275
250
260
295
320
315
295
265
305
350
385
390
340
340
350
350
325
285
265
280
300
345
380
365
370
365
370
375
380
385
385
400
440
495
535
470
365
260
260
310
380
380
360
340
355
360
395
380
385
375
390
400
390
385
375
335
330
340
385
405
405
400
380
390
395
420
430
395
360
355
390
440
455
460
395
330
310
315
320
340
325
300
275
290
285
250
255
330
410
480
440
320
235
235
295
290
235
175
180
210
240
210
170
80
35
35
95
145
155
135
95
70
35
-40
-105
-150
-140
-105
-70
-65
-60
-15
25
70
105
180
255
295
310
335
370
360
350
325
320
335
370
385
375
380
380
390
390
400
400
405
410
415
430
435
425
405
425
445
455
445
425
425
460
465
470
480
465
415
390
410
460
500
530
510
475
470
470
430
420
410
410
440
435
425
435
435
410
425
420
380
380
360
355
365
395
415
395
360
320
340
360
385
395
350
325
330
370
405
405
380
380
385
390
370
390
385
350
310
305
320
335
330
310
320
340
350
335
315
305
305
320
335
335
310
320
375
420
405
360
300
290
330
325
310
300
305
335
360
405
395
355
300
265
285
310
315
310
300
320
340
360
345
310
300
320
340
355
365
345
325
350
410
435
365
225
145
155
205
235
260
275
280
300
310
285
295
280
285
275
275
290
325
325
325
315
305
330
375
405
340
235
190
205
250
270
275
295
325
320
295
275
280
325
390
415
385
260
205
225
260
215
160
115
70
5
-65
-115
-125
-160
-155
-125
-80
-15
60
135
210
255
260
270
265
270
265
295
330
360
335
295
310
325
305
295
295
290
275
250
285
315
315
305
275
290
295
335
330
305
260
235
260
320
320
260
210
200
235
260
265
260
260
265
240
225
220
230
240
250
245
255
280
260
230
200
220
260
275
260
235
230
280
330
335
275
250
270
280
295
295
290
295
295
300
310
300
275
255
265
265
290
300
300
285
280
280
310
335
315
290
295
265
265
275
280
295
260
255
260
295
280
280
300
345
350
330
315
300
305
320
335
335
300
280
280
295
300
290
270
270
255
265
300
295
280
230
225
240
265
260
245
250
260
265
275
285
270
270
285
320
325
320
305
280
275
270
270
250
250
245
255
270
310
295
280
275
285
290
280
245
255
270
280
310
335
375
395
375
295
250
225
205
145
55
-20
-100
-170
-200
-205
-185
-160
-75
-5
70
100
110
185
225
240
250
240
240
255
285
325
345
355
325
300
310
335
340
315
270
240
250
265
245
230
215
245
250
240
245
240
220
225
245
275
270
260
240
245
275
285
265
250
220
210
215
240
225
200
195
235
240
215
185
170
180
190
225
240
250
220
220
215
255
245
245
235
220
245
245
255
240
275
300
310
305
285
245
245
265
285
265
260
260
290
300
285
280
280
260
250
245
255
275
285
290
250
245
240
270
290
280
250
215
245
260
295
290
295
280
295
305
305
290
270
270
275
290
295
295
280
280
290
315
325
335
300
265
245
225
250
280
260
240
230
220
275
270
260
230
240
270
295
305
285
255
275
300
310
290
270
260
260
270
275
285
270
280
310
300
305
265
250
270
280
310
320
290
250
230
205
220
225
250
260
280
285
300
340
335
255
190
145
105
80
25
-75
-175
-200
-175
-120
-60
-45
-40
15
100
210
215
230
265
300
310
300
250
225
215
230
290
320
315
280
265
250
265
275
290
270
240
230
240
270
280
255
260
245
260
270
280
275
245
220
220
265
255
220
185
175
230
250
265
235
215
205
185
210
225
210
220
230
260
265
265
235
190
185
195
215
240
220
205
210
245
260
255
235
230
235
250
265
285
275
230
210
230
245
240
235
265
275
325
340
340
320
285
265
275
300
295
275
275
275
330
335
285
245
220
250
305
315
310
285
240
230
240
270
290
260
235
250
270
285
310
300
280
275
310
330
325
305
280
275
265
275
265
230
205
235
265
290
260
225
230
215
235
245
245
250
230
210
185
220
210
230
225
240
245
230
235
220
220
235
255
255
235
200
175
195
240
265
255
235
220
235
270
275
255
220
205
235
295
350
345
315
255
210
180
220
235
245
250
260
295
280
250
190
155
115
80
30
-55
-145
-200
-220
-220
-205
-155
-100
-55
-5
55
115
160
200
180
210
230
240
270
250
225
215
220
240
240
260
255
260
265
260
250
275
280
285
280
290
265
230
210
210
230
235
225
205
180
195
240
270
245
185
155
165
195
220
210
190
185
190
200
220
220
220
215
185
180
175
180
190
185
180
180
185
180
160
155
165
200
225
225
190
185
190
230
275
280
285
265
245
255
250
245
270
275
260
235
220
220
220
225
220
235
235
215
215
225
250
280
270
235
205
205
225
265
285
280
255
230
230
225
225
250
255
255
250
240
265
270
275
255
265
295
320
305
285
225
205
230
255
255
225
225
225
220
200
175
155
160
175
230
255
250
220
205
235
270
290
255
210
210
230
265
275
245
215
205
225
235
255
275
265
260
230
235
250
240
215
195
180
215
220
210
230
235
230
255
275
270
270
285
295
280
245
185
145
90
40
-20
-95
-175
-220
-235
-215
-160
-85
-40
-5
15
80
135
215
205
210
220
220
240
260
240
225
210
195
215
225
210
195
205
235
270
255
235
195
190
200
225
225
240
220
210
230
240
245
240
210
220
245
265
245
175
125
140
130
125
140
155
155
155
150
165
175
175
155
140
120
140
175
200
215
205
240
255
250
200
145
105
115
145
195
215
210
230
245
240
215
170
170
180
195
210
220
225
210
265
260
280
270
230
195
180
200
225
245
215
235
240
245
270
275
235
195
165
170
200
235
240
220
215
215
250
275
265
255
235
230
250
260
235
215
230
255
270
270
265
250
230
255
260
250
210
170
175
185
185
195
190
180
185
215
240
240
210
185
170
180
210
230
250
245
210
200
225
265
275
240
180
125
165
185
195
190
160
170
185
245
255
225
195
195
205
220
210
195
200
205
230
240
220
235
215
230
215
210
205
220
255
230
200
175
125
70
0
-60
-100
-160
-195
-235
-245
-225
-215
-160
-105
-50
-20
25
120
165
190
200
205
225
235
235
205
170
170
180
200
220
210
180
195
215
230
220
215
185
180
185
205
245
235
185
160
145
140
160
150
160
130
135
175
175
175
150
140
150
165
175
185
180
165
140
125
130
140
110
100
105
145
155
150
155
150
155
170
175
155
140
110
110
145
175
150
155
140
175
195
200
225
200
210
215
265
290
285
235
175
170
195
225
195
175
165
180
195
200
190
205
185
170
190
220
235
240
245
240
225
215
235
265
285
285
220
205
175
190
200
190
215
245
240
230
220
225
250
265
245
190
165
175
190
220
215
180
155
145
170
180
160
160
150
160
180
185
180
180
195
205
185
180
145
125
130
140
170
165
165
170
175
170
175
190
195
180
185
200
210
205
195
195
165
160
170
195
160
150
140
170
205
220
220
210
180
200
225
245
235
195
140
95
40
-15
-80
-185
-260
-275
-245
-225
-200
-180
-140
-90
-30
40
110
155
170
195
190
200
185
165
170
155
170
175
175
155
135
150
175
205
225
235
210
195
175
185
175
170
170
160
150
170
165
150
125
115
135
195
170
165
150
160
175
175
165
135
125
145
155
155
130
100
80
115
125
155
145
130
130
150
175
165
135
105
80
95
110
140
155
145
155
170
195
175
150
140
140
165
200
225
245
225
200
175
195
225
215
225
195
195
235
245
215
175
170
205
220
225
225
205
220
210
210
225
210
200
175
190
205
210
180
170
180
190
190
230
255
255
260
275
275
245
245
220
230
240
255
275
260
260
235
205
180
155
135
140
140
155
165
175
175
180
170
180
185
200
205
205
225
240
250
235
220
185
160
145
160
185
205
190
190
185
200
235
245
190
160
160
180
185
180
170
155
145
190
220
230
220
165
165
185
205
200
205
195
205
205
200
145
95
20
-10
-70
-140
-205
-260
-255
-260
-215
-175
-95
-55
-15
75
145
210
185
155
140
155
195
240
235
180
155
140
155
185
190
190
175
170
185
220
220
185
170
150
180
205
205
175
175
170
195
225
235
205
155
110
135
180
155
125
100
125
170
200
170
115
65
80
110
125
110
95
115
130
175
180
190
185
125
85
95
125
150
145
130
140
130
150
170
150
150
160
190
215
230
250
230
220
210
195
190
190
210
260
290
290
220
155
155
165
180
165
155
140
140
150
170
210
200
180
185
210
245
255
255
245
190
175
185
215
230
255
280
245
215
180
175
145
150
170
180
175
170
150
155
170
175
225
220
190
140
115
145
160
175
180
165
180
185
190
195
170
180
205
240
215
195
175
155
150
190
185
170
155
150
165
175
180
165
145
140
130
115
130
155
190
225
245
260
275
270
210
120
20
-80
-140
-170
-220
-260
-275
-265
-215
-140
-65
-30
35
105
160
175
145
110
130
150
185
170
165
150
180
210
245
230
225
195
150
165
180
205
190
165
150
150
165
130
90
95
125
160
180
170
145
120
110
110
110
115
125
100
105
90
75
75
90
75
85
110
120
115
105
90
120
130
135
130
100
100
110
130
130
150
125
105
125
185
185
195
135
110
125
145
165
190
200
195
185
190
200
210
200
200
185
175
175
155
140
135
155
175
220
210
200
180
165
185
190
160
165
165
165
180
200
210
190
180
175
160
180
235
240
225
205
210
225
195
140
110
100
135
155
155
125
125
120
150
160
140
130
125
115
130
180
180
155
155
170
190
185
145
115
110
125
145
185
190
155
120
130
150
160
135
100
105
130
160
190
175
175
165
190
205
185
160
135
135
170
200
175
90
10
-40
-75
-120
-160
-230
-285
-305
-305
-250
-190
-130
-95
-40
20
95
150
180
190
180
165
170
170
165
150
155
155
165
170
135
110
105
120
155
175
155
165
155
165
180
165
135
85
85
115
145
155
155
110
70
75
95
120
145
135
90
75
75
100
115
115
115
110
85
80
90
85
105
115
120
105
120
110
95
115
115
140
160
155
155
140
155
175
150
115
125
170
165
185
180
190
180
190
220
240
220
180
140
145
180
205
195
180
140
120
130
160
190
185
155
145
155
185
195
160
140
155
185
215
230
220
200
170
180
195
185
180
145
115
135
160
155
130
140
165
185
195
170
165
150
170
155
150
145
125
105
120
150
155
145
125
125
135
155
140
140
140
160
170
190
230
240
215
170
140
155
160
145
95
70
90
125
150
160
160
180
205
220
180
100
35
-5
-35
-75
-150
-215
-255
-255
-270
-265
-215
-140
-80
-30
60
145
180
190
175
165
170
155
140
110
100
115
135
160
155
150
150
130
150
135
155
135
120
105
110
125
135
110
110
95
115
115
120
110
95
90
120
140
145
105
90
75
85
90
95
80
60
55
65
95
115
90
65
55
60
105
110
140
125
105
95
120
165
185
160
160
170
160
155
140
150
140
120
130
145
130
155
150
165
180
175
165
135
130
150
150
150
150
140
140
145
175
190
190
190
180
205
200
210
210
195
175
170
180
180
160
135
145
175
195
200
200
210
205
185
180
145
120
110
110
125
110
110
90
95
120
115
135
140
145
150
135
120
125
155
175
175
140
115
115
155
135
135
150
140
165
160
150
135
150
160
160
160
150
130
100
120
155
180
175
155
115
110
140
195
215
210
155
90
30
5
-45
-120
-195
-260
-285
-275
-270
-285
-230
-135
-40
-10
15
50
105
140
145
145
120
105
85
105
115
145
155
140
120
140
160
190
165
95
100
125
160
175
150
120
95
75
115
125
125
120
100
75
105
115
130
145
130
110
85
80
75
70
45
45
60
85
70
50
50
65
70
90
105
85
60
50
60
80
90
75
75
90
115
140
140
115
90
70
100
125
130
140
140
155
175
170
180
150
160
155
140
135
130
120
110
135
140
155
175
150
145
145
140
140
135
135
145
175
175
180
135
135
150
145
150
170
190
190
180
190
200
205
195
165
135
120
120
150
160
155
140
130
110
120
110
115
95
95
120
145
130
125
115
155
155
170
130
120
110
120
145
150
140
125
110
95
110
125
120
110
100
95
105
115
115
135
140
165
185
165
140
120
90
105
130
135
135
115
85
95
130
160
180
170
130
65
35
-5
-55
-125
-185
-240
-275
-295
-285
-290
-265
-200
-125
-65
-10
50
95
140
155
150
130
115
125
145
170
175
150
110
75
90
135
130
120
95
75
95
115
135
135
120
90
100
110
115
110
100
100
115
130
115
80
45
65
100
130
150
120
85
60
80
95
105
90
90
75
80
105
110
90
55
30
40
70
75
65
50
40
40
95
105
90
80
60
85
110
115
115
115
140
155
200
200
160
135
125
130
145
160
145
125
130
145
155
155
130
115
100
105
120
150
135
130
125
105
130
150
145
145
130
130
155
160
155
160
140
155
160
160
170
185
180
185
195
205
205
195
190
215
230
255
245
225
225
245
270
270
260
235
220
255
275
285
275
240
195
155
140
100
90
70
75
95
80
125
140
150
165
260
355
410
420
445
505
580
630
655
645
630
635
635
630
600
520
410
325
265
205
150
95
55
10
10
30
25
-5
-30
-65
-95
-60
-65
-65
-95
-120
-135
-135
-115
-135
-140
-145
-135
-130
-135
-170
-215
-230
-245
-235
-220
-215
-185
-190
-190
-190
-170
-175
-190
-195
-185
-190
-190
-185
-200
-210
-210
-170
-140
-125
-125
-115
-105
-70
-60
-70
-75
-80
-60
-20
10
10
5
10
45
70
75
80
80
70
75
85
90
85
75
75
75
80
80
70
90
85
100
130
165
185
225
320
455
555
625
680
705
725
750
725
675
615
560
540
540
560
555
530
515
505
520
575
600
620
630
645
650
660
645
580
505
390
260
175
110
55
-20
-45
-45
-60
-90
-120
-170
-180
-195
-180
-170
-180
-200
-210
-225
-235
-245
-270
-250
-255
-260
-240
-225
-230
-270
-320
-340
-340
-350
-360
-380
-365
-340
-335
-340
-350
-345
-325
-320
-280
-275
-295
-295
-270
-215
-195
-210
-230
-240
-210
-185
-165
-145
-140
-135
-95
-70
-40
-15
-5
0
-5
10
25
50
40
20
10
55
95
120
135
100
95
95
140
160
155
120
100
110
125
135
115
80
70
85
120
120
105
85
85
95
100
115
110
125
125
135
150
140
130
140
130
120
135
145
135
120
95
95
130
145
145
170
155
160
160
150
140
130
105
100
120
130
110
100
95
105
135
150
155
145
125
135
135
160
140
115
100
110
150
170
170
120
95
120
135
145
125
115
120
140
165
180
160
130
110
110
135
165
165
160
130
125
115
110
100
100
100
120
140
135
130
115
115
135
145
165
160
135
115
110
125
140
125
130
135
130
140
170
175
140
110
85
95
115
135
125
125
130
145
165
150
125
105
95
115
130
130
120
105
95
105
125
120
125
120
145
150
150
145
145
135
130
160
160
155
140
130
165
195
210
185
135
115
90
95
75
75
55
75
95
90
95
80
65
45
80
105
110
85
75
65
75
105
115
125
115
110
115
125
110
115
90
95
115
100
110
85
75
95
115
155
185
165
120
95
75
85
90
110
85
95
125
140
140
110
80
85
120
150
155
95
50
-15
-45
-90
-165
-245
-310
-325
-315
-265
-215
-180
-165
-140
-95
0
45
75
70
85
105
125
110
90
85
100
115
110
110
90
100
105
135
165
195
185
150
130
135
170
165
120
70
60
70
100
105
115
115
90
95
120
115
110
85
75
75
100
110
100
105
110
130
145
155
125
90
80
140
165
170
110
85
65
80
105
125
130
115
105
110
125
145
165
175
170
135
145
155
160
160
145
155
155
160
145
115
110
105
135
140
120
100
85
105
140
145
125
105
80
110
145
155
140
95
95
110
145
170
165
130
135
130
135
130
135
140
140
155
200
205
185
145
125
135
160
180
170
140
120
105
105
120
110
90
65
55
45
55
70
65
95
135
135
145
160
155
130
95
75
65
55
50
80
120
120
110
100
95
75
95
115
125
155
160
140
120
80
60
55
75
95
70
85
85
105
115
95
115
100
125
135
140
135
110
80
35
-5
-55
-115
-185
-255
-300
-320
-345
-335
-285
-205
-165
-140
-130
-55
35
90
115
110
95
95
110
145
140
115
100
105
120
130
120
120
110
140
140
160
140
135
115
130
135
165
165
140
110
90
85
95
105
80
70
55
50
80
105
115
90
85
75
95
85
70
50
45
55
70
80
110
100
80
75
85
90
105
100
85
95
95
90
100
105
80
85
105
90
85
85
85
120
145
145
130
110
115
135
160
155
130
115
115
140
150
155
150
150
150
160
155
145
130
110
100
125
150
155
155
140
130
100
105
120
110
105
120
130
150
150
145
135
125
145
135
145
135
140
140
145
155
175
170
140
120
115
135
120
105
105
105
110
115
110
95
85
90
100
125
120
110
90
80
80
90
105
115
100
90
85
100
125
145
150
130
90
110
110
100
100
105
135
155
160
130
90
75
80
115
125
95
80
70
130
170
185
185
175
175
190
140
85
0
-55
-115
-165
-190
-225
-300
-350
-355
-310
-235
-155
-125
-80
15
75
90
60
75
100
140
135
115
120
110
110
125
145
145
140
110
85
40
70
105
110
90
85
105
140
160
120
75
50
70
95
115
120
100
85
90
130
140
125
120
105
80
75
80
40
30
55
45
70
100
125
125
75
40
35
75
75
65
55
60
90
105
125
130
130
130
125
150
135
120
100
115
135
150
135
120
110
110
150
140
130
110
100
110
155
190
200
150
115
120
150
160
160
135
125
125
145
180
175
140
100
105
120
135
155
155
150
130
140
160
155
165
145
155
155
170
190
175
135
115
125
155
130
95
35
50
85
135
125
95
75
85
100
110
90
70
70
100
125
125
125
100
80
90
100
120
130
110
90
90
125
145
145
135
115
105
105
95
95
105
100
115
125
125
100
85
95
120
125
120
125
150
155
155
140
125
75
20
-60
-115
-170
-200
-265
-310
-315
-320
-290
-235
-185
-135
-85
-30
65
105
135
100
85
65
95
140
155
130
115
100
130
160
165
145
120
110
125
140
155
125
95
90
115
145
165
160
140
120
95
85
90
80
85
95
80
90
110
115
110
95
105
130
130
120
95
100
115
145
155
135
115
75
80
85
105
90
75
55
60
80
95
110
130
130
150
145
155
130
125
150
175
200
180
160
135
155
165
175
185
180
170
160
175
200
200
205
170
150
155
160
205
195
175
135
115
145
165
165
150
160
185
190
200
180
160
165
195
230
230
215
200
185
180
220
260
270
230
140
105
110
125
125
155
130
125
125
150
160
185
205
200
190
170
170
145
130
135
130
130
120
125
155
130
140
145
165
185
195
150
135
150
165
185
190
190
190
175
155
145
150
175
200
235
215
140
115
175
255
275
240
95
-20
-90
-120
-155
-215
-295
-285
-255
-200
-125
-75
-10
40
85
135
135
120
105
130
155
170
180
150
105
110
150
180
210
200
175
165
175
185
175
125
115
105
140
150
145
110
100
115
140
140
135
115
100
110
130
135
90
80
110
165
190
190
155
85
45
20
50
70
65
50
60
70
100
85
110
120
100
85
105
145
165
145
130
105
150
180
195
200
200
175
140
125
125
125
120
145
175
200
205
185
170
165
180
215
200
185
165
180
215
250
255
235
155
140
165
190
180
160
195
185
180
190
200
185
200
205
230
245
250
215
190
160
175
190
170
150
125
145
155
170
180
185
170
155
150
140
130
160
145
145
170
175
175
155
130
90
70
60
50
30
-5
-50
-75
-80
-80
-95
-110
-120
-95
-70
-85
-130
-160
-160
-150
-130
-130
-125
-140
-150
-125
-70
-15
45
95
155
185
215
230
210
245
245
280
290
270
255
245
270
305
305
300
280
275
275
290
315
320
310
310
325
350
355
345
305
305
310
330
330
335
340
350
370
385
365
335
310
325
335
365
370
380
355
340
310
325
340
315
305
320
320
325
295
265
255
230
250
250
260
275
230
230
225
285
285
275
270
250
250
230
230
255
230
235
235
275
315
325
310
265
250
260
285
280
240
200
195
205
255
260
270
240
210
185
180
205
180
195
225
240
235
215
180
170
215
270
335
360
335
325
330
390
420
465
480
450
380
310
240
195
155
140
145
210
275
255
240
210
195
190
195
180
160
155
145
135
140
135
120
110
100
110
140
145
135
135
130
120
120
110
85
65
75
65
60
75
90
90
90
55
45
35
15
-5
10
35
35
20
25
40
65
105
130
125
75
25
5
45
95
110
105
90
85
125
150
170
175
145
160
165
160
160
150
165
185
190
200
210
205
180
175
190
200
220
215
200
195
170
190
205
210
165
115
120
175
190
190
155
140
155
185
185
180
165
210
220
220
175
120
110
135
180
205
185
170
185
200
195
215
205
195
185
120
95
85
105
135
145
140
140
140
150
135
110
115
130
145
165
155
140
150
155
170
170
155
130
125
125
165
175
170
150
140
130
150
150
155
145
165
160
175
170
170
150
115
120
140
160
165
155
140
160
150
130
125
120
125
150
170
175
170
145
155
165
195
200
215
200
195
185
200
210
195
135
70
35
65
110
85
75
80
70
110
125
115
80
105
110
135
135
115
120
120
125
145
125
115
135
140
125
105
105
115
115
105
110
115
130
125
120
105
110
120
90
70
75
95
120
135
125
100
130
165
200
185
135
50
15
-30
-50
-50
-90
-175
-290
-340
-375
-360
-320
-265
-230
-165
-95
-30
10
60
95
130
125
115
75
30
50
80
115
105
90
80
100
130
195
180
140
85
45
60
85
85
105
110
85
65
45
75
75
80
80
100
120
115
95
75
55
60
70
80
120
135
100
75
60
45
70
80
60
60
55
70
70
60
25
20
45
75
110
85
55
40
80
90
110
130
120
105
95
115
105
100
65
75
100
95
70
75
75
90
90
90
105
110
85
75
80
90
85
95
50
75
95
125
135
110
85
90
85
105
120
95
85
70
85
85
75
55
30
40
60
110
120
95
70
60
75
75
60
70
50
50
50
45
60
65
50
45
30
45
50
30
25
35
80
95
75
50
15
20
60
65
45
45
45
70
75
80
65
35
50
50
70
80
65
45
35
25
45
80
100
65
55
55
80
110
120
100
40
5
-15
-50
-120
-195
-270
-335
-355
-325
-310
-340
-330
-255
-160
-60
15
30
5
-20
0
40
70
65
50
30
40
60
55
30
20
15
40
55
70
70
55
25
0
0
45
75
80
80
105
135
145
110
80
65
105
145
165
130
115
125
125
130
105
95
95
100
105
105
85
50
25
40
85
100
85
70
50
75
90
115
130
150
110
130
150
170
175
145
115
110
140
140
150
145
135
160
185
200
175
155
150
160
190
185
150
120
110
115
135
165
190
180
150
135
135
145
130
130
120
125
185
205
190
170
170
195
215
225
195
180
155
140
155
160
190
180
165
155
155
150
135
105
110
115
140
145
130
140
140
110
110
105
125
125
120
140
150
160
175
145
120
100
100
120
135
135
150
150
165
185
200
155
140
135
135
115
95
100
100
115
120
135
135
145
120
150
170
205
225
215
185
140
150
140
150
105
55
15
-15
-60
-125
-190
-250
-280
-275
-270
-260
-255
-240
-185
-120
-55
20
80
120
150
170
170
135
130
125
115
115
120
135
140
145
155
145
150
145
140
130
125
140
155
150
125
100
110
115
110
110
105
100
115
130
120
115
110
50
50
65
115
135
110
75
60
55
70
85
80
65
40
50
50
80
65
45
85
105
90
75
55
35
55
75
95
110
80
55
60
75
110
130
120
115
120
150
150
130
85
60
110
140
155
145
120
110
120
135
150
150
150
130
130
140
145
150
160
140
135
140
140
120
115
100
105
120
130
135
145
135
165
195
225
205
170
140
145
155
180
175
145
110
85
65
75
80
110
100
90
100
120
115
105
95
95
130
135
140
115
95
120
120
145
135
130
100
120
145
165
140
115
90
85
110
145
145
130
115
100
110
135
130
125
125
130
135
150
150
135
115
120
125
135
145
155
180
180
155
110
55
0
-65
-135
-190
-225
-260
-280
-280
-240
-195
-120
-60
-35
5
80
120
150
145
115
85
70
85
95
85
75
60
65
110
120
130
130
110
130
130
140
140
120
105
115
120
130
105
80
50
45
80
105
120
100
110
110
120
145
145
115
65
30
20
25
20
35
30
30
45
75
65
60
50
60
55
70
55
35
10
10
45
70
80
80
70
65
55
85
90
75
65
75
105
105
105
85
65
95
95
105
110
95
110
120
130
155
145
110
80
85
130
135
150
110
80
85
120
125
120
75
65
85
100
125
135
130
135
120
130
140
130
125
120
115
140
150
145
125
75
60
65
75
75
75
70
70
90
80
90
95
60
70
95
100
120
100
85
95
100
120
130
105
75
65
85
115
115
110
95
100
120
115
110
80
70
65
85
105
130
110
105
100
110
115
100
70
75
110
145
160
150
120
100
125
160
160
125
65
-5
-55
-80
-100
-145
-200
-240
-250
-215
-180
-150
-130
-120
-100
-40
10
65
110
110
105
115
135
110
85
90
115
115
120
115
105
100
90
100
110
110
105
85
105
135
155
135
130
100
95
100
110
100
90
90
80
95
85
70
35
50
40
65
80
80
65
40
30
45
60
60
60
30
5
20
30
40
60
60
80
60
80
60
50
35
20
40
70
75
70
65
55
60
85
70
95
90
90
110
130
115
95
95
85
110
125
160
165
150
140
130
145
135
125
115
85
75
100
115
110
85
85
110
120
125
105
85
110
100
135
145
135
115
110
130
135
130
135
140
150
150
135
135
130
115
120
125
125
95
80
80
95
110
120
115
110
80
110
130
130
130
115
125
135
140
140
105
105
110
100
125
155
160
145
95
105
135
155
145
115
80
85
115
135
135
125
110
125
150
180
185
155
130
125
120
120
105
105
95
130
155
155
140
85
20
-15
-50
-75
-110
-180
-225
-240
-215
-170
-160
-140
-115
-65
-30
25
40
75
85
85
125
135
125
95
85
100
110
140
115
90
75
95
110
110
120
105
75
75
90
125
130
140
165
165
160
135
105
100
75
50
50
55
75
55
55
65
75
105
105
85
75
70
75
90
55
15
10
25
35
25
20
20
10
20
5
30
50
45
35
55
55
85
50
45
30
50
85
100
95
90
105
105
100
130
130
100
85
90
80
85
90
85
75
95
115
140
165
150
145
115
115
115
95
85
75
85
120
150
130
100
80
100
115
150
155
125
110
100
115
130
130
125
120
125
170
210
200
160
125
115
110
115
115
85
60
55
70
80
100
115
95
95
95
100
120
130
125
120
115
135
120
65
35
45
65
105
95
65
40
40
70
100
100
95
105
115
140
140
130
125
80
105
105
110
115
110
85
110
125
120
105
95
70
60
100
115
115
100
90
105
130
155
165
170
150
135
110
70
30
-10
-65
-115
-150
-180
-220
-275
-305
-295
-285
-255
-220
-175
-155
-130
-75
5
75
90
100
105
95
100
105
70
75
55
75
100
115
105
95
105
110
110
95
75
50
45
65
105
115
100
110
115
100
120
115
100
80
80
55
75
70
20
-15
-20
-5
20
40
45
40
40
50
65
45
40
30
5
25
35
35
15
0
15
10
0
10
-5
-20
-20
5
40
35
15
5
20
35
60
75
60
40
60
90
100
90
90
70
70
80
95
95
80
65
80
100
85
85
55
40
55
75
110
110
110
75
65
80
120
145
120
95
80
100
85
80
70
65
90
120
135
120
105
115
145
145
155
135
105
65
80
85
105
110
100
80
95
110
135
125
95
85
65
60
60
70
75
75
70
85
105
130
105
75
45
70
90
105
110
95
100
105
125
115
100
95
80
70
80
70
80
95
105
125
135
130
115
65
75
90
115
115
105
125
125
150
175
150
120
45
-25
-60
-105
-190
-275
-345
-350
-335
-290
-240
-180
-145
-85
10
75
115
110
115
100
105
115
105
85
70
70
95
110
130
140
115
85
90
90
100
85
70
105
110
110
100
95
95
80
80
95
80
55
45
25
55
80
100
80
80
45
55
75
70
60
60
50
35
55
40
50
20
20
10
15
5
40
45
40
35
40
35
65
75
75
95
110
100
90
100
120
110
105
110
110
110
125
145
135
140
150
150
165
185
170
125
65
60
90
120
110
115
130
110
105
115
120
105
115
105
130
155
190
180
165
140
130
145
155
155
140
135
130
135
145
115
90
55
55
80
105
130
135
100
105
115
125
125
115
95
110
120
125
100
75
85
110
130
165
145
150
110
110
125
150
170
130
85
100
125
150
110
75
60
70
110
110
100
100
95
115
150
180
150
125
120
145
175
220
205
175
115
70
30
-20
-85
-170
-235
-295
-300
-290
-270
-265
-245
-185
-120
-55
15
75
120
135
150
165
140
115
105
100
105
125
145
130
130
120
160
170
145
130
120
115
145
160
140
125
125
120
145
170
145
125
90
105
135
150
135
110
75
55
65
65
35
25
-10
15
70
100
95
75
50
45
55
65
65
60
45
70
85
95
80
70
55
80
95
140
140
110
105
85
120
140
140
140
140
155
175
190
190
185
195
180
185
165
150
130
110
105
140
175
165
155
145
165
185
175
160
150
140
155
190
215
205
195
195
180
185
180
175
180
170
175
200
215
195
150
145
140
165
185
180
145
120
130
150
160
165
155
150
170
185
210
210
175
140
130
155
165
160
180
160
150
135
150
150
125
125
125
165
185
190
170
180
185
195
195
170
140
150
140
150
155
160
175
190
200
210
180
140
70
-10
-85
-165
-210
-200
-185
-165
-140
-105
-70
-30
5
60
115
160
205
165
145
140
120
130
145
160
150
135
160
175
180
150
130
100
110
145
160
155
125
105
120
145
175
155
135
110
115
135
160
120
100
80
95
120
140
135
110
75
85
95
95
85
75
65
60
75
90
95
80
85
75
75
110
115
120
110
135
130
165
150
135
115
115
125
150
150
170
170
185
200
230
205
200
165
175
185
210
205
205
165
160
165
180
185
180
140
140
145
155
145
140
130
160
165
170
160
165
155
170
195
200
215
200
195
185
200
185
150
135
120
140
150
155
145
150
135
130
135
160
165
125
120
135
145
180
170
160
145
145
180
195
180
175
155
145
160
165
160
155
135
135
145
150
145
125
105
115
140
170
160
135
125
125
155
200
215
220
190
135
90
70
50
-10
-70
-155
-180
-175
-160
-145
-105
-40
-5
10
50
85
105
110
140
160
140
125
105
95
130
125
130
150
125
135
135
150
160
145
130
120
120
115
125
105
90
95
125
135
130
125
120
110
100
125
115
120
90
75
80
120
115
75
50
40
40
60
60
40
30
45
85
110
110
60
35
50
70
85
85
65
50
35
70
90
100
85
95
120
150
160
140
115
130
180
220
195
155
145
135
135
110
110
90
110
110
110
105
120
130
175
175
155
140
155
130
85
85
130
190
235
225
185
160
165
210
225
200
135
95
105
150
185
185
150
120
50
25
45
105
140
150
120
95
95
125
105
55
-5
-5
35
40
55
65
95
155
185
155
75
35
75
95
90
60
45
50
80
100
160
170
150
120
100
95
75
40
35
50
85
120
110
80
110
120
65
-30
-65
-70
-120
-225
-325
-360
-360
-310
-270
-210
-140
-85
-55
-80
-70
-40
15
75
115
110
65
30
30
60
90
75
45
5
10
5
35
60
75
60
0
-10
-5
-5
-10
-10
0
20
35
40
25
15
25
20
70
50
-30
-105
-110
-115
-90
-60
-70
-65
-30
15
45
30
5
-40
-45
-35
-25
-20
-40
-110
-90
-15
40
0
-55
-65
-70
-50
-35
-30
-15
-30
-30
-40
-20
15
35
60
70
75
45
10
15
45
50
50
-5
-55
-35
-10
-10
5
25
30
30
35
55
55
60
30
0
-5
30
45
100
105
75
50
50
95
85
15
-65
-90
-60
-30
-35
-15
10
65
90
70
30
-10
-25
-25
-35
-15
5
20
25
15
10
0
25
20
15
0
-5
-40
-45
-55
-50
-40
-25
15
20
10
-10
-10
10
10
5
30
60
60
35
5
-20
-10
-25
-20
-50
-60
-40
-35
-15
-5
50
85
90
10
-70
-135
-220
-310
-385
-460
-495
-515
-480
-420
-385
-335
-330
-295
-230
-105
-15
20
20
0
-5
0
10
15
20
-10
-15
5
30
20
-10
-55
-55
-20
15
35
-15
-45
-35
10
15
20
10
25
65
95
90
-5
-80
-95
-55
-30
-25
-10
-15
-10
-45
-40
-45
-35
-50
-45
-50
-45
-25
-30
-30
-55
-45
-35
-15
-5
-5
5
10
25
40
35
20
10
25
50
80
85
95
85
85
85
95
95
70
50
60
125
150
135
105
75
80
110
115
100
90
95
85
90
90
105
115
120
130
145
165
145
120
115
150
175
195
180
170
135
155
175
195
155
135
110
135
200
205
130
80
40
80
100
130
130
110
115
160
190
190
165
125
100
120
150
165
165
165
185
210
210
205
180
150
130
125
135
165
215
240
220
170
130
125
180
165
120
80
110
165
195
175
165
215
280
280
190
105
55
-20
-90
-160
-200
-260
-290
-320
-285
-215
-180
-140
-60
60
135
205
230
230
210
160
145
135
125
115
135
170
170
180
155
140
150
160
170
175
175
180
160
155
140
115
120
140
145
160
200
240
205
135
80
60
95
145
150
145
110
50
15
10
45
60
85
70
75
50
45
35
80
125
175
185
105
55
-20
0
40
80
70
75
80
110
155
225
195
140
85
60
80
110
125
140
135
145
155
180
195
180
130
110
125
150
145
165
175
205
220
235
190
145
110
110
160
160
150
115
120
150
195
215
195
190
170
200
230
230
200
195
170
145
150
165
180
170
155
155
145
110
70
75
85
125
145
150
145
130
110
120
155
200
220
195
165
155
160
180
190
170
165
150
170
170
155
100
95
120
170
200
190
150
135
115
130
135
165
190
180
170
160
170
145
115
100
115
135
175
160
165
150
145
165
195
175
125
65
25
-20
-95
-160
-215
-235
-220
-210
-255
-270
-220
-130
-15
85
115
85
65
85
160
200
210
190
165
145
125
100
135
140
120
115
110
150
185
175
155
155
155
165
160
145
120
120
155
170
180
150
110
105
120
165
180
160
145
155
165
170
125
55
25
25
60
90
115
105
80
65
55
80
95
95
80
85
80
90
135
185
180
155
85
70
100
135
150
155
195
215
200
135
100
120
160
180
185
175
180
185
205
210
210
180
175
165
175
190
210
205
190
170
195
235
275
320
310
220
150
135
175
180
185
180
200
250
280
270
270
265
320
320
305
265
245
215
230
255
270
275
245
190
155
165
195
210
195
195
190
230
275
320
315
290
205
155
200
225
235
245
275
315
320
300
220
150
125
185
230
230
240
245
265
295
325
355
365
355
295
260
255
280
295
235
235
275
310
320
285
205
190
250
300
295
280
285
300
345
365
360
320
240
165
115
100
35
-10
-55
-50
-45
-30
-10
50
85
85
75
130
200
205
215
230
300
365
395
395
375
340
300
280
255
270
315
375
415
410
360
320
315
360
375
325
280
260
265
290
310
360
385
385
375
350
335
345
345
305
295
300
330
340
335
320
280
285
300
310
310
280
250
250
255
280
295
285
280
270
260
250
235
240
250
300
315
355
360
350
325
300
260
265
260
270
305
320
335
380
415
375
305
260
275
325
340
340
350
350
355
330
285
290
300
345
395
425
380
360
355
365
360
350
350
335
315
340
370
390
370
345
335
360
390
405
380
380
365
370
390
410
395
390
390
415
410
405
360
330
315
315
325
350
350
340
325
305
325
345
350
355
370
375
365
385
385
370
365
375
345
355
350
345
370
395
405
420
365
320
315
340
365
360
360
335
325
350
355
390
370
365
375
395
410
410
405
390
355
355
385
400
385
370
365
385
435
465
455
385
325
285
270
255
190
125
65
25
45
90
105
125
115
90
105
135
175
235
305
345
385
415
400
395
345
345
350
370
375
375
365
370
385
410
420
385
385
385
385
405
395
380
365
365
420
465
455
440
375
370
370
405
415
390
370
360
340
315
300
325
345
365
345
350
335
335
335
325
330
320
310
310
300
295
275
300
310
310
310
310
350
365
360
360
350
350
360
350
325
325
345
360
405
390
410
390
405
410
410
390
385
375
365
360
380
410
385
350
330
350
395
440
460
430
395
375
375
410
405
400
390
385
415
440
420
385
350
360
375
415
440
465
500
485
465
415
360
350
360
370
405
415
420
390
370
385
425
445
440
420
380
340
340
355
360
355
345
355
380
395
390
390
395
400
415
420
425
410
420
410
420
415
405
400
380
345
325
350
365
355
345
370
410
420
425
385
355
380
415
425
395
385
365
360
370
405
450
470
460
440
395
345
295
245
170
130
55
20
-25
-55
-70
-30
20
90
125
130
135
180
250
330
365
380
395
425
435
420
395
390
390
395
400
405
390
380
400
410
430
420
405
420
430
440
400
335
295
310
345
385
415
385
345
335
335
335
350
355
350
335
340
335
320
315
320
320
340
335
365
370
385
345
325
330
365
380
375
335
295
280
295
330
325
310
310
345
365
380
370
370
370
385
395
410
395
365
360
375
390
405
400
395
390
415
420
435
435
405
405
410
425
445
430
405
345
345
380
395
405
390
390
415
425
425
420
400
400
415
420
440
460
455
435
445
430
440
420
420
420
390
385
405
395
385
380
365
340
345
360
360
345
345
375
390
395
395
395
415
430
460
475
465
420
400
410
445
430
420
410
445
465
425
340
310
325
350
375
365
360
370
390
400
420
425
405
390
360
360
400
420
430
415
425
465
490
495
470
390
290
220
190
170
145
85
25
-5
5
5
-10
-35
-35
25
110
210
305
360
355
350
380
415
425
415
430
420
410
385
385
385
390
400
415
405
380
370
365
385
400
430
425
395
365
360
390
425
450
440
400
360
320
340
345
325
300
310
340
360
370
355
330
320
355
355
360
340
335
310
295
300
310
320
310
320
320
340
350
355
350
365
370
375
365
355
340
345
355
365
370
405
415
425
430
415
400
395
365
365
375
400
395
400
395
400
415
445
440
420
405
420
450
460
410
375
375
385
380
410
380
400
405
410
425
425
430
450
440
440
435
430
395
400
385
405
405
445
445
430
405
370
330
340
375
385
355
350
375
390
390
355
360
390
415
415
390
365
330
350
370
410
420
395
380
400
395
375
375
395
395
415
420
415
380
375
365
380
375
370
375
375
400
390
425
475
485
405
290
215
200
165
85
-5
-85
-130
-135
-75
-20
15
35
120
250
360
390
385
370
380
395
430
440
415
390
370
365
360
355
370
380
420
420
410
370
310
305
340
375
380
360
335
350
380
395
385
355
340
310
345
345
360
340
340
345
365
350
350
325
285
265
320
345
330
270
245
260
295
300
315
345
350
310
320
350
365
375
360
345
340
350
370
340
320
350
390
400
395
390
345
325
310
330
355
355
355
365
390
410
420
425
410
410
415
405
345
340
365
375
375
420
450
465
460
415
375
345
355
360
355
370
395
395
435
460
415
375
370
385
400
390
385
375
325
300
305
315
350
350
410
445
440
370
285
255
285
315
350
335
340
360
390
420
410
390
355
330
325
350
360
375
375
390
385
415
405
380
335
305
330
330
310
285
315
310
330
325
360
385
380
365
340
305
280
245
175
100
5
-95
-165
-160
-160
-135
-45
30
90
115
165
240
315
360
390
375
340
325
325
330
340
330
325
330
325
330
340
340
340
320
320
355
365
330
315
345
400
365
305
255
235
245
280
295
300
290
265
275
285
315
315
315
285
280
255
295
285
265
230
225
275
300
260
230
230
225
245
275
290
295
300
285
285
300
315
335
350
370
365
315
290
315
320
305
305
335
365
350
325
300
325
355
370
390
375
335
340
335
325
320
320
335
340
365
405
350
305
300
310
325
355
345
330
335
340
365
375
375
400
405
395
345
340
340
335
335
340
335
340
340
365
385
345
300
305
320
290
250
270
300
320
320
325
340
375
390
360
280
235
215
260
310
330
305
280
290
320
345
345
330
300
295
320
335
330
325
310
330
345
365
370
345
330
335
345
355
340
335
330
320
285
230
190
135
60
-20
-90
-140
-155
-160
-170
-125
-65
25
115
210
310
380
385
370
340
355
330
320
315
310
310
310
315
320
330
340
350
340
380
385
340
300
270
285
290
290
325
355
350
335
340
365
340
320
300
310
310
280
260
260
245
235
235
230
230
265
275
300
305
315
345
350
320
260
220
210
245
245
265
270
275
280
280
310
315
365
340
300
305
315
370
395
390
375
360
330
335
335
320
305
310
325
325
335
330
335
350
365
380
365
355
350
340
340
380
410
385
330
305
335
360
375
370
380
415
475
520
520
495
455
460
475
490
475
455
415
360
295
265
220
190
160
175
220
270
275
285
235
240
345
485
570
615
640
695
775
810
745
645
585
575
570
530
470
410
335
310
285
290
260
255
245
230
235
255
280
245
180
135
110
105
110
95
80
75
115
130
125
75
60
55
120
130
90
20
-5
10
20
25
35
30
25
45
60
75
70
95
115
120
120
105
95
95
100
100
100
120
170
185
225
275
290
280
220
205
230
245
275
295
325
350
375
360
330
325
340
355
355
360
365
365
365
365
365
390
410
400
385
355
365
365
355
345
355
360
375
365
390
410
420
355
265
275
320
345
335
350
345
360
385
380
375
380
375
400
380
365
320
300
310
350
380
405
370
355
380
395
400
390
340
315
280
305
335
355
355
335
340
370
380
400
375
335
320
340
350
355
325
325
345
365
355
330
345
355
360
385
385
375
360
345
360
355
360
360
350
345
340
330
355
365
350
325
315
305
315
325
325
300
295
305
325
350
370
365
315
330
350
360
340
325
325
335
330
370
400
395
365
340
345
330
270
255
285
330
335
315
315
295
310
310
335
355
350
325
340
360
430
450
395
280
220
210
200
150
60
-35
-120
-155
-130
-120
-75
-30
35
110
180
235
245
240
245
250
270
285
300
310
320
320
355
375
400
375
345
330
340
370
390
385
345
350
350
355
340
335
330
375
405
435
390
345
320
330
350
345
320
295
275
280
305
320
325
310
300
300
335
370
365
330
295
290
320
330
330
330
335
335
355
385
415
415
375
355
360
375
375
345
335
360
360
355
370
380
370
405
440
425
380
325
295
315
335
340
355
365
350
355
370
385
375
360
360
375
370
365
355
345
340
370
400
425
405
375
335
355
405
460
480
440
385
340
335
360
365
365
375
395
410
425
395
400
390
395
400
380
320
260
275
335
360
365
350
340
320
345
355
375
355
340
360
415
480
525
475
370
285
240
235
300
300
305
305
325
355
365
375
395
370
375
365
405
405
405
385
360
340
340
335
335
305
315
335
385
400
410
375
355
325
260
180
80
5
-40
-105
-125
-145
-145
-140
-115
-15
60
95
160
225
290
335
375
355
345
335
335
340
355
360
360
365
365
370
385
345
325
315
345
360
370
360
335
320
340
350
350
350
335
300
305
340
345
350
325
320
315
335
345
330
310
300
305
310
305
290
260
270
280
315
310
295
290
295
315
335
330
290
280
275
275
300
305
320
335
330
345
350
360
365
340
340
340
360
380
370
365
365
380
405
430
405
375
330
365
385
395
380
375
360
385
395
415
395
390
385
370
380
365
365
355
350
370
390
430
415
415
395
415
430
455
435
405
385
395
420
445
440
420
415
410
420
410
390
380
365
385
370
375
355
345
325
335
345
370
375
350
350
375
405
380
365
355
365
365
375
395
390
350
355
355
380
405
385
360
370
350
380
390
375
340
345
350
375
390
395
390
370
380
375
380
395
395
410
425
415
370
300
230
150
100
30
-30
-90
-125
-125
-65
0
60
120
170
230
330
360
350
350
330
335
350
370
395
385
360
365
375
395
385
380
370
370
365
370
380
385
365
365
375
385
375
355
335
355
350
360
365
335
320
315
325
335
340
335
315
315
305
330
335
320
315
290
290
310
320
320
305
300
305
320
330
335
310
300
315
355
365
365
345
320
335
355
370
370
365
355
375
395
400
385
385
380
400
415
445
440
420
390
365
370
385
400
375
380
390
425
430
415
390
405
390
410
425
405
385
400
405
430
430
415
390
380
385
430
460
455
440
440
440
475
500
470
440
415
425
425
430
415
390
395
385
400
420
395
385
360
350
365
380
375
355
340
355
365
370
365
355
370
385
410
430
430
420
410
420
400
375
345
345
365
395
395
395
375
360
360
385
385
400
395
375
375
410
420
415
385
350
360
375
390
420
415
435
440
430
415
390
305
215
135
65
30
-15
-35
-30
-20
15
75
140
195
225
275
315
375
395
395
390
380
390
415
405
425
420
425
420
405
420
395
390
350
365
370
390
380
380
375
380
390
410
395
380
365
365
395
395
385
345
340
335
360
375
350
325
325
355
355
365
345
350
340
335
355
385
365
340
315
305
315
340
345
345
330
325
330
385
365
330
300
325
360
390
380
370
355
365
390
400
395
380
370
375
395
400
410
405
395
410
420
440
425
405
390
395
400
425
415
430
445
435
405
405
390
375
390
400
425
420
385
355
365
390
410
405
410
400
400
425
440
430
410
415
410
415
395
370
350
350
365
360
360
375
385
360
355
370
380
380
360
345
340
345
355
350
345
350
365
360
380
400
410
390
340
335
330
335
330
330
335
340
360
360
350
355
360
370
350
375
360
330
320
340
345
375
365
355
375
425
445
465
420
370
315
270
245
200
140
90
10
-40
-70
-90
-85
-85
-50
15
80
130
185
235
285
315
375
390
410
390
365
350
335
320
355
355
340
340
350
345
345
315
280
315
330
345
340
330
320
345
350
360
350
325
315
320
325
330
320
305
300
315
310
345
340
330
295
290
280
320
325
325
310
300
300
270
280
255
255
250
250
280
280
280
285
300
320
320
305
295
275
300
325
350
350
350
355
345
360
340
355
355
365
385
385
375
355
320
315
330
360
380
390
365
340
345
355
340
330
305
315
330
345
345
340
325
330
330
370
390
370
360
335
345
345
340
345
340
365
365
380
375
365
360
340
355
380
365
355
340
310
325
335
360
365
320
325
305
330
320
305
275
280
305
340
345
335
315
320
325
330
315
290
275
300
305
325
320
315
300
290
300
325
320
305
300
305
315
335
325
300
265
275
285
315
330
320
305
320
300
295
305
335
335
345
365
375
325
270
225
195
145
110
45
-45
-140
-195
-185
-165
-125
-85
-15
45
110
185
245
255
275
280
305
310
325
325
310
290
300
330
375
360
350
325
320
315
305
300
295
280
275
290
295
290
270
265
280
295
305
305
265
250
265
275
280
255
255
240
260
265
280
255
230
230
240
255
285
255
245
230
245
255
255
255
235
230
240
265
280
280
295
300
300
310
295
280
260
280
305
310
330
330
325
315
330
350
360
365
355
345
340
335
350
335
325
315
315
335
325
300
315
315
315
325
320
335
325
315
325
335
330
325
315
320
335
345
360
345
335
340
355
365
370
365
355
330
335
335
325
310
305
285
300
295
310
310
295
280
290
320
325
315
300
295
300
315
320
320
315
290
295
325
325
320
315
310
315
325
330
315
315
295
305
325
350
345
330
305
320
350
365
350
330
310
315
310
295
280
285
320
335
355
350
300
225
180
140
105
55
-15
-85
-125
-125
-100
-70
-50
0
50
110
175
240
270
305
285
285
310
310
300
285
285
300
320
340
325
310
300
315
320
325
320
300
280
295
305
330
315
300
280
280
295
315
295
275
265
275
280
275
275
265
245
250
270
260
230
255
235
240
260
270
245
245
230
230
250
235
240
220
220
225
235
240
235
235
210
230
255
265
270
255
260
265
285
300
295
270
275
285
300
305
310
320
305
320
340
340
320
320
300
315
330
340
335
320
300
300
310
320
320
320
305
315
330
345
340
335
315
315
325
320
295
290
290
305
335
355
340
315
325
330
340
355
345
335
325
335
335
315
300
290
280
285
305
290
275
255
250
265
285
290
285
260
255
260
275
305
290
305
290
300
295
280
270
245
255
275
295
305
280
275
280
315
335
345
315
290
305
340
305
245
230
225
230
230
250
255
270
290
305
315
340
335
300
235
190
185
140
90
-5
-85
-145
-120
-75
-5
40
65
85
115
155
185
160
135
135
155
185
190
185
195
205
225
230
220
195
170
175
180
210
240
250
255
260
240
210
195
180
190
170
160
175
180
185
195
195
195
210
215
200
190
205
215
195
190
190
220
215
160
100
35
20
30
65
110
130
145
145
125
125
150
185
185
165
140
160
195
230
245
235
225
215
200
210
190
170
160
180
235
300
300
250
195
165
180
235
270
280
250
205
190
195
200
195
200
185
180
205
230
240
240
215
225
250
280
255
220
210
225
240
275
245
210
230
240
275
270
250
235
205
205
215
225
220
175
170
190
210
205
200
210
220
230
220
205
185
180
190
225
255
250
205
160
125
105
130
125
105
65
30
15
-5
-15
-45
-30
-5
20
35
5
-50
-115
-160
-155
-150
-190
-275
-310
-270
-185
-110
-35
-15
-25
-5
130
260
345
355
295
200
135
105
135
190
230
275
280
295
285
265
235
215
245
290
320
290
255
255
270
280
295
280
255
295
310
350
395
385
385
335
290
255
270
270
285
300
315
350
360
355
325
295
285
295
315
320
295
245
240
270
290
305
300
285
285
315
305
280
255
250
280
280
260
235
200
160
185
215
270
275
270
275
300
280
250
205
165
170
195
215
215
210
240
265
310
315
290
235
195
180
225
280
300
275
245
215
225
235
235
220
240
210
180
180
185
190
175
180
195
205
215
210
205
225
235
265
285
285
285
285
300
345
350
285
230
180
195
215
185
125
110
95
135
160
160
165
185
200
205
225
220
175
155
175
190
230
240
185
140
110
150
200
215
210
180
190
190
210
215
220
205
190
205
235
220
170
145
145
145
175
190
210
240
265
275
245
195
140
100
55
-10
-125
-255
-340
-360
-315
-260
-165
-110
-50
-5
50
125
160
170
185
160
160
155
175
195
200
180
190
190
200
195
190
190
205
195
200
210
190
175
165
195
215
205
195
170
180
205
210
195
170
155
170
180
195
175
140
130
140
145
165
155
150
130
130
165
165
175
185
165
140
165
170
170
180
175
195
220
220
225
200
225
220
235
245
255
260
215
190
195
235
250
235
230
225
250
280
265
250
220
230
235
260
275
250
240
220
240
230
240
260
255
275
285
315
365
350
315
265
230
265
265
255
230
225
205
225
235
230
225
220
215
210
200
225
235
230
240
240
295
295
270
250
245
250
245
260
250
240
245
265
260
260
250
235
250
285
305
295
265
210
195
205
220
220
195
180
200
245
280
275
240
205
215
240
265
230
175
135
100
70
35
-60
-185
-250
-260
-230
-160
-115
-95
-75
5
110
195
205
215
200
210
210
210
220
220
215
195
205
180
185
180
175
200
200
210
210
210
225
230
240
220
165
115
105
145
145
165
175
175
190
185
190
170
140
125
115
130
140
155
150
120
95
90
110
110
105
75
85
115
105
110
100
100
95
115
130
155
145
115
100
130
155
185
185
170
155
155
165
180
175
150
145
160
175
190
175
160
165
180
185
190
195
175
155
160
160
175
175
170
165
185
205
195
160
145
135
170
180
185
215
210
210
205
220
210
200
205
195
175
145
130
130
150
150
165
185
195
200
175
140
125
130
140
130
135
160
215
230
215
185
120
95
105
125
115
105
110
125
155
180
180
185
170
170
185
215
190
130
100
110
165
190
200
190
165
140
145
160
180
195
165
125
60
-10
-50
-80
-140
-235
-300
-300
-250
-225
-165
-115
-60
20
75
125
130
125
150
145
150
120
75
40
35
65
90
95
115
110
125
130
105
65
45
60
85
135
105
90
75
75
100
140
165
145
80
25
25
50
70
60
40
30
20
45
40
50
25
30
40
40
45
30
40
55
75
60
20
-10
0
15
45
60
75
85
60
55
75
75
110
110
100
105
100
135
140
125
120
115
125
155
150
155
120
110
115
145
155
155
135
135
150
170
165
145
145
140
150
135
125
130
130
140
150
195
200
170
120
125
185
200
205
175
140
130
115
115
115
105
95
90
95
125
125
130
135
150
170
180
195
175
160
155
175
155
125
100
95
100
90
105
120
140
140
145
160
155
150
140
135
135
150
170
180
150
135
130
165
185
160
155
115
110
120
170
205
205
155
115
70
35
0
-65
-135
-185
-210
-205
-180
-150
-150
-105
-50
-5
75
130
160
155
160
120
125
95
70
90
120
140
170
150
140
135
150
150
150
150
135
130
140
165
165
140
120
115
125
150
150
120
115
120
130
150
165
140
120
100
90
105
130
115
95
65
50
60
75
85
50
55
70
95
100
115
125
175
195
170
125
80
60
70
65
70
90
125
125
140
160
180
205
200
165
150
170
180
155
150
140
145
145
150
160
170
175
170
150
175
210
210
185
160
160
180
180
185
165
180
195
215
205
175
175
205
230
235
220
195
185
205
225
225
210
200
190
140
130
135
150
160
130
100
105
140
160
155
140
165
195
220
205
155
125
135
145
155
125
115
150
155
170
185
185
150
130
115
140
170
190
175
175
165
175
185
200
185
155
135
140
160
165
125
80
65
85
140
180
195
190
180
130
105
60
15
-30
-50
-95
-130
-195
-240
-255
-250
-205
-125
-85
-85
-30
25
100
150
170
170
150
135
135
155
180
185
185
170
160
145
165
170
175
160
130
130
150
135
100
90
105
160
195
175
160
160
150
125
80
80
95
125
150
135
95
75
50
25
35
40
80
80
75
80
65
80
80
70
65
80
95
100
100
100
110
95
100
125
150
130
135
155
160
130
95
60
45
65
100
110
115
100
110
100
145
165
170
175
170
150
175
200
175
135
95
70
105
150
175
160
155
135
95
120
120
140
145
150
160
160
185
190
185
190
200
245
220
185
150
140
155
175
180
155
115
95
80
100
125
115
120
120
125
145
135
115
110
115
120
145
140
160
155
125
120
110
105
100
110
105
125
155
175
155
155
130
150
165
175
160
140
135
150
160
165
135
105
105
130
155
165
150
140
140
170
185
150
125
110
110
135
170
175
180
145
110
85
60
15
-45
-120
-185
-205
-210
-210
-225
-220
-185
-130
-100
-85
-45
-15
55
120
145
155
160
160
165
160
200
200
175
150
150
150
180
165
175
150
155
170
195
205
180
155
140
155
150
165
155
135
140
160
190
180
155
120
120
135
135
130
140
130
140
135
155
155
160
125
90
90
110
130
110
95
60
70
85
95
95
80
70
90
110
105
110
95
90
120
115
135
130
115
115
135
165
150
150
150
150
150
185
185
175
170
160
180
180
190
200
185
185
195
205
205
195
180
170
175
195
200
195
185
175
185
210
220
195
195
185
200
220
225
225
205
210
225
235
235
230
205
200
210
230
225
215
190
175
165
175
175
160
135
140
150
160
175
180
155
155
160
170
180
195
175
165
185
185
190
170
160
170
175
200
190
165
140
130
155
165
190
170
155
140
145
160
165
150
130
145
150
180
185
170
155
145
155
170
185
195
185
190
210
235
220
180
130
65
25
15
-40
-105
-190
-240
-245
-265
-250
-245
-235
-205
-140
-90
-10
50
95
140
165
180
175
155
145
145
160
180
190
165
145
140
165
180
175
150
140
150
170
195
185
190
150
130
125
130
155
130
115
115
130
145
140
125
100
80
80
90
105
90
85
70
95
100
120
110
110
105
90
75
60
65
60
80
60
90
75
65
50
60
70
80
75
95
85
100
115
125
135
140
140
135
150
170
165
160
140
150
160
175
175
190
150
160
175
180
180
180
155
160
190
195
195
175
160
140
145
165
160
150
150
160
180
205
205
200
190
160
175
215
210
190
180
180
200
215
205
185
160
150
145
165
170
145
150
125
135
155
175
150
140
135
150
170
175
160
140
150
160
185
180
170
140
150
155
175
175
170
165
150
180
175
185
175
155
170
190
200
205
200
175
175
185
195
195
190
195
185
205
225
205
180
175
180
190
200
170
115
60
15
-5
-30
-85
-140
-195
-210
-200
-160
-150
-125
-105
-55
-20
5
45
80
95
135
155
185
200
185
190
180
195
185
195
205
170
165
170
185
200
200
185
165
160
160
175
165
145
145
160
180
175
165
155
150
145
170
180
165
160
170
165
170
160
135
125
105
115
130
125
115
95
100
95
120
140
140
140
140
130
135
120
120
105
95
105
130
140
120
125
130
145
165
165
165
165
160
165
185
190
190
180
180
180
205
205
210
195
200
200
210
215
230
200
185
200
200
205
210
195
205
210
220
225
215
195
185
200
205
210
210
210
205
215
235
235
220
205
210
210
220
215
235
215
240
275
325
365
375
415
465
520
600
675
750
835
905
985
975
940
870
805
775
765
755
745
735
715
705
715
715
715
685
675
660
630
580
535
475
410
370
350
300
225
145
80
30
10
0
-20
-35
-70
-80
-95
-95
-100
-125
-155
-165
-155
-160
-175
-200
-230
-235
-235
-235
-235
-250
-265
-280
-270
-250
-260
-275
-320
-330
-320
-290
-285
-285
-310
-305
-275
-250
-235
-245
-265
-285
-265
-195
-180
-190
-195
-145
-120
-80
-80
-60
-60
-35
-5
20
50
70
65
90
105
110
120
115
120
140
160
190
210
215
205
170
130
150
180
190
180
170
170
165
175
155
160
185
185
185
190
185
155
150
150
170
170
155
155
160
180
185
200
200
170
145
165
180
180
160
150
155
170
195
195
190
170
170
170
175
165
170
160
175
140
150
155
180
160
165
185
195
195
180
155
165
180
205
205
190
170
160
165
175
190
190
175
195
205
225
225
215
200
190
190
200
190
170
140
140
150
145
155
150
140
145
160
165
150
155
145
175
190
165
155
130
135
125
145
170
180
165
145
145
150
155
145
150
140
150
180
200
175
150
120
145
145
175
175
140
145
135
165
180
200
200
180
190
225
245
225
180
100
35
-25
-70
-140
-235
-320
-355
-330
-295
-250
-190
-170
-140
-80
35
95
135
125
135
160
175
180
160
150
140
150
160
165
175
150
155
165
175
175
175
175
165
175
195
185
175
155
140
155
145
160
170
140
140
120
155
160
150
135
130
135
155
160
150
120
110
140
165
155
150
120
120
145
160
160
155
135
145
145
145
140
140
135
145
155
180
175
175
170
165
170
180
165
140
150
150
160
185
170
165
155
150
165
190
175
170
165
150
165
185
160
145
130
155
175
190
195
190
165
165
180
200
200
185
180
195
205
235
225
205
170
180
190
190
180
150
140
140
145
140
120
130
110
120
140
155
160
145
140
130
145
180
170
170
135
135
145
190
195
170
155
150
155
160
160
155
130
140
145
160
155
150
135
140
150
165
180
165
145
130
135
180
190
195
205
205
205
180
120
35
-70
-125
-190
-215
-265
-270
-300
-255
-190
-115
-65
-5
30
105
140
160
150
120
120
130
135
150
145
125
115
130
160
155
145
130
125
145
155
175
160
150
130
125
140
140
140
125
90
85
100
110
115
105
85
65
95
95
100
80
65
75
100
115
115
65
50
45
65
75
80
65
50
75
90
115
105
100
85
90
110
140
140
135
120
125
135
140
175
170
145
140
150
150
150
145
140
135
150
150
150
135
130
125
155
170
175
165
140
155
175
190
170
160
125
150
150
170
175
160
170
180
195
205
180
180
185
175
185
185
190
190
165
145
145
140
140
125
110
125
130
135
125
105
100
120
140
150
160
125
110
125
145
140
150
135
105
120
125
155
160
155
145
145
180
155
140
135
135
140
145
150
140
150
140
160
155
150
140
120
105
115
145
185
220
205
165
135
75
45
-15
-75
-150
-210
-235
-230
-225
-220
-180
-150
-85
-30
35
85
115
110
110
115
130
125
90
105
115
140
160
145
125
130
165
155
135
105
85
105
135
145
150
130
130
125
135
160
145
130
125
110
85
110
115
125
110
75
100
115
105
85
75
75
85
95
95
75
50
60
85
105
95
75
70
70
85
80
90
85
75
85
105
125
120
105
90
115
135
150
160
135
145
135
175
200
185
165
125
135
150
175
170
155
155
155
160
175
180
160
135
120
130
150
170
165
175
200
200
185
160
170
160
155
165
175
185
175
170
155
165
170
165
150
125
130
125
155
145
140
120
115
130
140
140
125
110
110
120
150
150
140
130
125
135
160
155
140
120
110
120
155
160
150
120
115
140
160
150
125
120
130
145
160
150
120
115
150
200
205
220
160
110
95
50
-15
-120
-190
-285
-305
-295
-260
-220
-165
-125
-60
30
105
145
155
135
130
155
170
150
125
125
125
145
155
155
130
90
90
115
140
135
130
115
110
140
145
130
130
100
110
145
140
135
100
75
75
75
85
75
90
100
80
80
90
70
65
75
75
90
100
85
70
50
45
75
70
65
60
50
70
95
115
125
110
115
125
140
170
165
150
120
150
135
155
160
140
110
120
155
180
165
145
135
125
145
170
195
200
170
160
140
130
140
155
150
155
140
145
175
180
185
170
180
170
165
160
140
145
145
155
155
130
115
115
140
155
140
110
105
125
135
145
130
125
125
115
140
155
140
115
85
90
110
125
140
140
100
90
115
155
145
135
115
110
120
150
150
150
125
120
125
150
145
140
125
115
145
155
145
155
145
175
200
210
190
150
65
15
-45
-75
-145
-235
-305
-335
-350
-305
-245
-210
-165
-90
0
70
120
130
120
130
130
125
130
160
160
160
165
150
130
125
110
105
115
160
160
160
145
155
150
135
135
145
130
135
155
180
185
155
110
80
85
115
95
80
70
80
110
120
95
65
60
65
85
100
110
90
65
50
60
65
70
70
55
80
115
135
130
110
90
85
100
110
130
130
125
140
155
155
155
160
135
145
155
180
175
160
145
175
210
210
185
155
140
145
135
130
130
120
115
120
160
180
180
185
210
280
410
530
630
760
910
1060
1150
1190
1175
1140
1035
950
890
855
815
780
705
655
630
635
650
635
655
635
610
565
465
420
345
305
255
210
105
55
5
-40
-65
-85
-135
-135
-160
-160
-155
-170
-205
-210
-240
-250
-245
-245
-275
-305
-325
-305
-290
-300
-325
-370
-375
-365
-345
-355
-365
-390
-405
-395
-375
-355
-360
-370
-365
-340
-295
-280
-295
-295
-285
-255
-215
-205
-215
-170
-145
-135
-110
-65
-35
-30
-20
0
30
60
55
45
55
85
135
175
175
150
110
125
140
165
170
160
150
160
145
135
150
140
135
150
165
170
175
160
160
140
155
170
165
155
140
145
165
195
195
185
160
165
165
185
175
145
140
140
155
170
160
150
145
170
170
190
180
155
140
170
185
210
175
165
145
130
150
170
170
185
195
185
190
180
165
155
140
135
140
170
175
165
150
145
150
165
175
180
160
175
180
200
190
155
135
130
195
205
220
205
200
160
170
180
195
215
220
200
190
160
145
140
140
150
150
175
165
145
135
140
165
185
185
175
160
145
155
160
150
165
165
145
140
165
165
140
120
115
145
175
165
165
150
155
165
195
180
170
145
150
160
170
160
150
150
150
160
180
190
170
180
215
250
265
240
195
155
125
95
60
5
-75
-105
-150
-185
-180
-175
-165
-125
-70
-40
-10
20
55
85
115
160
180
180
155
135
135
155
165
180
175
140
150
175
185
180
175
165
165
180
195
180
165
160
145
160
195
190
160
155
165
205
210
185
135
115
135
170
180
175
165
140
145
155
170
155
155
145
135
155
185
195
140
135
140
145
165
165
155
150
155
180
190
180
180
190
205
220
225
220
220
190
190
195
185
170
145
150
175
180
205
190
215
210
215
205
180
160
150
140
185
195
200
190
195
205
190
200
195
185
170
165
175
190
225
200
210
195
200
215
195
205
200
205
215
215
245
245
235
220
240
220
210
200
175
145
140
140
165
160
170
150
175
195
235
235
220
180
170
170
170
180
165
155
175
195
180
150
140
140
170
200
215
205
190
175
175
205
220
215
185
160
165
180
205
185
165
175
180
205
200
215
235
235
220
180
135
60
25
-15
-25
-80
-115
-160
-165
-160
-115
-55
5
20
25
55
95
140
180
175
170
145
150
165
165
175
175
155
155
165
170
160
155
155
165
190
220
220
205
180
170
180
180
160
140
130
135
135
165
140
135
135
150
150
170
165
140
130
130
170
200
175
155
115
115
120
150
130
105
100
115
130
165
130
115
115
140
155
165
155
155
150
165
190
185
175
175
185
200
220
230
220
190
180
180
185
205
220
215
190
190
195
185
185
165
175
185
215
225
205
190
185
190
215
210
175
155
155
165
200
215
205
205
210
205
230
245
250
240
215
230
235
245
235
240
240
210
215
205
215
195
200
185
180
180
180
175
165
170
205
195
195
175
175
165
155
180
195
200
190
195
205
230
205
170
125
135
180
195
190
180
160
165
175
195
200
180
160
145
170
185
180
170
165
160
165
175
170
155
145
150
190
215
220
230
210
205
215
205
170
140
95
35
-15
-85
-140
-185
-205
-230
-205
-175
-135
-120
-80
-45
30
110
155
165
160
170
195
195
180
155
135
150
175
200
205
175
160
155
160
165
180
175
160
170
170
165
145
140
150
150
190
210
205
195
185
155
125
130
120
115
85
75
100
135
135
110
85
90
125
135
120
100
95
120
145
130
125
105
120
125
145
130
110
100
85
110
125
165
150
140
130
150
165
180
160
155
155
165
170
165
170
150
155
170
185
210
190
170
165
170
185
190
180
185
170
160
155
165
155
135
145
155
200
210
225
200
190
200
190
190
170
165
155
150
170
190
195
175
175
175
210
230
225
200
160
125
125
175
170
145
150
165
180
170
155
130
145
155
185
200
180
145
145
150
175
180
180
175
155
175
175
185
150
160
145
145
165
175
195
155
145
155
160
175
180
165
165
165
180
185
185
190
205
220
215
185
135
100
50
40
15
-45
-130
-205
-240
-230
-230
-170
-115
-90
-60
-20
65
130
175
190
190
205
215
225
200
200
205
215
210
210
210
195
175
160
175
190
200
200
200
220
205
205
185
190
175
195
215
245
225
195
150
155
150
165
155
150
125
135
150
170
155
125
125
135
135
140
165
140
140
150
155
180
170
140
130
130
145
180
205
215
215
200
210
215
240
255
230
225
230
215
230
225
240
225
235
245
235
225
210
225
235
255
260
255
230
230
250
265
275
260
240
230
210
215
215
230
230
245
245
250
250
225
205
235
240
240
240
240
260
270
265
290
295
270
220
205
220
240
225
205
190
185
180
185
205
215
195
200
195
200
210
205
200
215
225
235
215
180
160
185
205
240
230
205
185
205
215
230
230
205
195
210
220
210
205
175
175
190
190
200
200
195
185
215
230
240
240
215
200
240
265
270
250
195
125
100
45
-5
-55
-125
-190
-225
-205
-185
-190
-180
-145
-90
-50
25
90
145
170
195
210
215
175
170
170
200
225
250
220
190
190
205
210
235
215
210
210
210
220
230
220
190
165
165
175
175
160
145
160
170
175
180
170
135
135
150
185
175
155
140
135
135
145
145
135
120
100
120
145
170
180
150
105
80
95
125
140
160
155
185
175
150
100
105
120
140
180
195
200
195
190
180
210
225
220
230
215
215
210
190
190
175
190
185
180
200
200
190
185
205
210
225
230
195
165
175
200
225
240
225
205
220
245
250
235
210
180
180
210
225
225
205
185
195
220
225
230
210
200
215
210
230
225
205
175
145
140
185
185
170
180
200
225
255
250
235
230
210
190
170
170
170
155
155
170
190
180
190
185
190
210
220
215
200
185
190
210
185
155
135
135
180
205
235
230
220
180
165
175
190
185
180
180
180
220
255
240
220
180
140
120
95
40
-35
-90
-145
-155
-155
-170
-195
-210
-130
-40
10
65
120
140
160
185
195
195
165
155
160
180
185
165
170
145
140
165
210
210
185
175
195
225
220
210
175
150
170
185
200
180
170
160
170
190
175
150
115
115
145
145
150
135
105
100
120
135
145
125
90
85
110
125
155
150
135
115
110
110
140
110
85
75
80
130
135
135
125
130
115
160
175
190
185
185
205
200
200
205
200
185
195
195
210
220
210
195
200
215
220
240
215
225
235
235
225
195
200
210
200
210
220
210
210
190
185
210
220
220
185
185
205
240
260
265
250
220
210
240
225
225
220
210
220
245
270
280
280
280
285
275
265
210
160
145
170
185
205
200
155
135
155
190
230
230
210
200
200
220
255
265
250
215
200
195
200
175
185
195
200
240
250
250
245
255
245
245
220
195
175
150
155
175
205
215
190
180
175
175
195
180
220
230
260
265
260
210
155
95
55
10
-20
-80
-140
-150
-155
-110
-55
0
45
40
50
85
145
160
185
195
205
215
225
215
195
155
155
200
230
220
205
180
200
220
245
245
225
190
170
185
195
180
175
180
185
190
185
170
160
150
150
175
195
190
165
125
125
125
160
145
140
130
130
160
190
180
155
160
150
145
145
145
150
140
155
150
170
170
155
145
165
210
220
205
190
175
175
200
220
220
195
200
215
245
265
255
240
200
215
235
235
220
195
185
195
205
235
240
230
205
200
195
215
205
180
185
220
220
220
205
205
210
260
315
355
345
270
220
200
215
220
195
170
120
130
150
180
185
190
190
205
210
210
190
150
150
155
175
200
200
210
205
210
190
180
165
170
165
185
220
235
220
190
175
200
240
265
250
240
225
215
220
225
245
250
245
210
200
165
150
155
170
175
150
120
55
10
-50
-85
-105
-125
-155
-165
-190
-170
-100
-55
5
55
110
175
175
180
175
155
175
170
165
185
190
190
175
180
215
215
195
165
170
170
165
180
185
190
165
145
160
180
185
170
150
140
125
120
140
155
180
150
120
105
110
100
85
90
85
115
105
100
105
135
175
185
175
155
140
95
60
45
70
100
105
140
165
190
160
135
125
125
135
160
145
130
130
135
170
200
195
175
170
165
165
190
185
180
160
185
185
185
175
155
150
165
180
180
180
190
175
185
210
205
195
160
180
225
265
280
225
170
160
170
185
150
135
155
205
205
185
150
125
110
110
115
150
155
195
175
160
165
180
185
195
220
225
230
185
145
105
90
105
130
170
205
180
145
125
150
165
160
160
160
165
200
210
180
135
135
155
170
165
165
175
170
180
180
170
125
55
-15
-65
-115
-160
-210
-235
-255
-240
-220
-175
-135
-95
-25
85
160
195
205
160
125
100
115
110
120
140
140
130
135
140
140
145
160
165
170
175
170
165
150
125
125
120
140
135
155
145
145
150
140
95
65
35
60
110
130
150
130
105
90
105
105
115
70
70
75
80
100
120
120
85
65
70
90
115
105
115
140
145
120
135
155
130
120
130
140
145
130
135
150
165
150
165
150
155
140
160
165
175
190
175
175
195
180
180
155
145
155
150
140
120
140
150
190
220
220
220
195
165
175
180
165
180
170
185
200
195
170
150
125
100
95
85
95
110
130
130
135
130
160
155
135
125
155
185
180
155
130
140
160
180
225
240
220
135
70
70
105
110
90
85
130
155
190
145
100
105
125
145
180
170
165
135
105
125
165
195
185
130
85
35
-40
-115
-165
-215
-230
-230
-210
-170
-135
-95
-60
-10
55
75
110
120
135
145
155
140
120
105
115
110
140
145
130
130
135
160
190
165
135
110
120
125
105
90
90
145
190
215
195
155
145
125
95
90
105
90
50
40
40
60
50
55
25
40
80
110
135
150
125
55
10
40
65
75
80
100
130
145
100
55
55
60
110
165
190
180
150
110
135
160
200
210
205
145
100
70
95
120
145
155
155
165
185
180
165
125
100
100
120
135
145
130
135
180
215
245
215
190
200
235
235
175
120
95
110
120
135
150
155
150
175
180
160
120
70
35
70
130
150
135
120
110
150
155
165
135
105
105
135
185
165
95
40
65
115
130
125
135
155
130
100
60
90
155
190
170
125
130
155
140
120
80
100
110
120
90
75
85
110
125
165
170
170
140
130
120
70
25
-85
-135
-195
-220
-210
-185
-155
-130
-75
-40
10
30
65
85
135
170
175
145
170
185
180
150
120
100
85
80
105
135
165
125
100
80
125
185
195
205
195
190
160
165
190
195
155
100
85
135
145
105
25
-15
-10
45
60
65
45
45
65
100
105
70
30
30
30
60
95
95
75
65
105
130
110
35
40
65
115
160
155
115
80
95
145
150
170
150
145
150
140
135
120
145
180
220
235
205
140
85
85
110
110
145
175
155
100
70
125
170
190
195
170
155
145
160
205
195
125
95
120
160
190
250
260
285
265
200
125
80
70
65
95
125
145
145
125
140
160
175
150
145
145
150
160
175
175
175
180
190
205
180
155
165
160
155
140
130
145
125
110
100
115
140
165
175
160
150
160
195
215
225
185
160
150
155
160
165
140
150
175
220
230
200
115
65
-5
-50
-95
-125
-135
-155
-120
-70
-20
-5
0
15
70
140
190
200
190
160
135
105
100
100
100
90
105
125
165
165
170
155
165
170
150
125
130
165
190
195
170
175
180
170
175
170
170
140
105
75
80
125
150
140
140
155
165
185
175
160
155
105
75
60
50
45
65
70
85
110
130
110
85
60
85
135
150
125
120
130
120
135
130
140
130
120
120
165
175
180
165
150
165
170
150
135
120
130
135
140
165
160
145
140
150
160
175
145
125
125
145
155
165
155
145
165
200
240
255
210
165
120
140
160
205
200
190
190
205
215
205
190
140
145
145
145
145
150
155
170
175
175
150
110
105
115
135
160
185
160
135
130
145
175
200
190
165
140
145
160
170
145
110
140
175
200
200
130
90
100
135
155
175
180
170
175
155
145
155
130
110
140
165
220
220
200
145
115
120
140
200
195
170
140
130
145
145
125
60
-20
-60
-105
-160
-185
-185
-170
-150
-90
-40
-35
-50
-20
75
135
160
150
135
155
150
165
145
145
145
135
125
155
175
185
160
155
175
185
180
170
145
160
170
195
190
170
150
140
165
190
195
150
120
120
145
130
125
95
105
115
145
165
155
130
125
145
150
145
130
115
105
100
115
140
170
135
85
85
120
130
140
160
165
175
180
200
195
170
160
175
220
240
225
205
160
165
165
205
210
195
180
170
215
225
230
220
230
225
225
220
210
195
205
195
190
175
190
200
195
195
205
220
240
250
235
235
240
255
225
185
145
125
140
150
180
185
175
180
185
220
230
220
200
210
205
205
165
155
155
155
185
200
210
185
175
170
195
225
230
235
220
195
215
225
235
215
165
125
180
225
245
205
165
155
165
190
195
165
160
185
210
245
260
225
200
155
125
100
75
20
-35
-100
-145
-135
-115
-120
-135
-135
-75
-25
30
65
115
130
170
200
220
240
230
220
220
210
190
175
160
170
190
205
210
185
170
185
220
235
240
215
195
180
195
190
225
220
185
175
205
230
230
205
180
160
160
170
185
185
130
120
110
150
155
145
135
135
150
170
165
155
140
130
150
155
155
145
130
140
150
170
165
175
160
170
180
185
175
150
135
145
180
215
230
225
200
200
200
235
240
225
200
195
205
220
215
195
175
190
220
220
225
230
215
215
220
240
245
235
205
235
255
275
270
280
255
235
235
230
225
215
190
180
210
240
260
270
250
225
250
245
240
220
195
195
205
215
200
190
195
180
190
185
195
210
220
215
210
185
190
160
155
150
200
250
260
210
170
145
195
210
200
175
165
195
215
215
230
230
205
210
195
195
220
235
235
215
220
215
200
160
165
165
195
245
265
235
200
185
185
200
215
230
230
205
145
95
55
25
-30
-100
-185
-205
-205
-175
-160
-135
-90
-30
45
130
160
160
175
205
220
220
205
210
205
210
180
170
160
175
205
215
215
200
170
195
210
205
185
170
150
155
190
225
205
175
180
150
175
170
170
150
130
135
145
180
185
175
155
145
140
135
145
160
165
160
130
135
125
110
115
105
115
120
145
130
130
145
155
175
210
200
185
165
155
180
190
185
160
180
180
200
200
205
205
190
175
205
225
220
195
195
210
235
235
200
185
205
220
235
210
225
225
215
240
265
270
265
235
190
185
195
215
230
230
215
230
250
265
260
225
225
240
245
255
240
215
220
255
270
265
245
210
195
180
215
210
195
170
180
215
225
215
245
245
265
270
245
245
230
205
175
150
170
200
195
190
195
210
215
200
200
205
205
220
240
220
190
180
175
200
235
240
245
235
225
255
240
225
195
190
200
220
245
265
265
240
215
190
170
150
115
50
10
-50
-95
-140
-195
-235
-215
-190
-155
-110
-105
-75
-55
0
90
125
140
180
200
240
250
210
185
180
180
200
230
235
220
180
190
205
205
225
200
200
195
210
225
205
195
175
170
195
215
205
180
160
155
170
170
175
165
165
175
190
175
170
150
130
125
140
140
140
160
150
130
135
145
135
115
100
100
110
155
175
175
160
150
150
150
135
130
125
130
140
145
165
175
175
210
190
175
175
180
160
170
215
235
235
220
205
190
185
195
185
185
175
190
195
215
240
240
215
200
185
185
190
180
180
165
195
215
245
255
240
245
245
220
200
190
180
180
195
195
195
180
185
195
235
255
260
240
195
195
200
205
195
195
175
195
200
195
170
150
165
190
210
230
240
200
185
195
230
255
210
180
150
175
220
240
230
205
190
185
200
215
205
175
160
170
190
230
235
245
220
180
185
200
215
200
175
180
200
225
225
205
215
215
230
270
305
270
215
115
75
35
5
-55
-125
-195
-230
-235
-220
-220
-210
-185
-130
-80
-15
45
115
155
180
210
220
210
205
200
210
230
255
235
240
235
240
225
210
180
150
175
225
265
265
225
170
150
160
185
190
180
160
175
200
215
220
220
190
140
120
125
125
145
130
125
165
170
170
165
145
125
160
170
155
125
115
115
130
140
135
135
120
135
160
175
190
190
170
180
190
210
225
200
190
190
185
215
220
230
225
220
245
295
300
265
180
145
165
215
225
210
220
225
240
265
245
245
210
230
275
280
270
220
205
205
235
255
280
255
240
255
250
265
240
215
210
230
240
270
255
255
225
215
230
235
230
215
200
190
175
175
180
195
200
210
210
240
235
220
205
195
215
230
235
210
195
195
220
245
205
200
190
195
235
245
225
200
210
220
250
265
230
210
185
185
205
225
255
255
255
255
255
250
245
285
270
250
200
130
60
-10
-45
-85
-110
-160
-170
-180
-190
-170
-100
-30
10
50
95
145
185
195
190
175
155
155
185
210
200
185
185
195
230
225
195
175
180
190
210
205
215
195
170
180
195
220
215
215
200
205
215
205
180
175
155
155
155
160
145
155
140
150
180
190
140
120
100
120
120
125
130
120
115
110
110
140
145
130
140
115
140
165
175
155
140
145
155
170
190
175
160
150
125
140
130
125
105
105
120
125
110
120
100
85
120
145
135
120
105
95
115
135
155
135
120
100
105
125
115
130
130
135
135
125
130
115
105
125
135
155
170
160
150
145
155
175
185
165
140
150
130
140
120
120
105
105
110
115
95
85
85
110
135
145
130
125
85
105
125
140
130
115
85
100
115
130
140
130
115
125
130
150
135
125
115
110
110
140
120
135
110
130
130
140
135
125
125
130
145
155
185
190
175
145
130
100
35
-20
-85
-125
-185
-175
-165
-170
-150
-115
-65
0
35
75
80
120
130
165
150
130
125
130
130
165
155
145
125
130
150
155
165
155
135
115
150
140
175
160
145
125
150
155
145
120
115
120
125
145
135
135
110
120
135
135
105
90
85
105
105
110
95
75
75
80
95
110
110
105
95
100
110
140
140
120
110
120
145
175
175
140
145
145
175
185
175
170
155
155
165
180
200
180
170
165
195
205
200
195
185
160
180
185
185
185
150
145
170
175
190
175
165
170
165
205
190
190
180
200
215
235
225
205
210
185
195
210
205
175
150
165
155
170
175
145
145
135
150
185
180
160
145
145
160
190
185
170
145
155
185
185
185
155
130
140
150
170
170
165
140
140
160
165
180
165
150
155
165
160
155
150
150
140
150
180
200
210
190
175
145
105
60
-10
-80
-135
-220
-260
-255
-265
-230
-195
-125
-95
-40
30
85
130
160
165
185
165
155
155
155
155
180
175
175
165
165
180
170
165
145
145
165
170
180
165
150
150
175
175
155
145
140
135
160
175
160
160
130
140
135
150
145
160
130
130
125
135
125
105
115
130
140
150
165
145
135
130
140
165
155
150
155
155
165
175
185
185
180
190
200
205
185
180
175
190
185
205
200
180
170
185
180
200
175
175
165
165
190
205
205
195
175
170
185
205
190
190
185
175
205
220
220
215
205
205
220
225
205
195
180
180
180
185
180
175
170
175
165
190
180
160
160
170
195
210
200
185
175
175
200
210
220
195
195
200
200
220
210
205
185
185
210
215
220
200
200
195
215
230
230
205
200
190
215
225
220
220
195
200
235
260
280
245
215
160
130
80
20
-30
-125
-185
-215
-230
-205
-190
-170
-130
-90
-35
50
120
155
170
205
215
210
185
180
185
210
220
230
205
185
185
205
205
195
195
190
185
195
220
215
205
175
160
180
180
170
185
180
170
180
205
200
175
145
160
160
190
165
165
135
135
140
160
165
150
135
140
155
180
185
155
135
165
185
190
205
180
165
165
200
235
225
205
195
190
205
220
225
220
210
210
210
225
235
215
200
215
235
245
240
215
180
200
210
225
220
215
205
200
200
225
220
220
205
195
220
255
260
230
225
220
235
265
250
240
215
200
215
215
205
195
185
170
180
195
190
200
165
175
210
225
225
200
175
175
180
185
190
180
160
185
195
200
205
185
185
200
215
210
215
205
185
175
210
220
215
205
200
200
205
225
220
210
200
200
200
220
225
220
210
235
265
260
220
140
110
80
60
25
-40
-125
-195
-215
-215
-200
-175
-140
-130
-75
-10
95
170
190
185
215
225
220
220
205
180
180
190
215
220
200
185
185
195
215
190
190
170
175
200
205
210
195
170
175
185
190
185
170
155
175
175
170
175
160
140
140
150
160
160
155
120
120
125
150
155
145
125
130
150
170
160
140
120
120
145
165
165
150
150
155
180
195
190
190
170
170
180
210
205
195
195
185
215
220
240
205
190
190
205
225
225
215
210
230
235
260
280
260
230
195
175
200
195
195
180
195
205
230
215
205
210
205
220
240
230
230
210
230
250
280
305
310
305
245
200
170
180
195
190
245
265
235
160
115
110
140
205
245
240
200
165
155
170
190
195
190
185
175
200
205
210
235
245
235
225
205
170
160
145
145
155
185
190
195
190
205
235
290
285
230
150
95
110
135
150
155
165
175
200
230
205
175
120
50
5
-45
-120
-205
-275
-290
-280
-270
-245
-220
-190
-150
-60
45
120
145
155
155
190
190
195
180
160
175
180
210
195
165
160
160
175
180
180
165
140
150
160
180
175
165
155
155
180
190
185
170
140
145
180
180
160
145
125
145
145
160
165
150
140
140
145
170
160
145
125
150
160
180
150
155
145
155
155
205
190
180
155
155
175
200
195
185
190
190
195
220
210
210
205
205
205
225
240
220
205
215
240
235
230
215
185
180
210
210
230
225
215
210
220
230
230
205
205
205
235
245
235
225
215
225
240
245
230
230
225
220
235
250
230
195
180
185
195
215
195
185
165
185
195
210
190
180
180
190
220
230
225
200
190
205
210
220
200
200
200
200
215
235
230
205
200
190
210
225
210
195
175
190
205
235
220
210
185
205
220
230
235
210
205
190
210
235
230
240
235
235
230
185
145
85
35
-30
-90
-130
-180
-220
-240
-240
-190
-145
-130
-105
-85
-15
100
160
195
205
195
210
230
230
240
220
200
200
215
230
235
215
205
210
215
225
220
195
170
195
205
230
235
225
190
205
205
215
200
195
180
175
205
215
200
195
160
165
175
200
190
160
150
145
160
185
190
180
145
140
165
180
170
160
160
150
175
205
185
160
165
165
170
200
190
185
185
195
230
230
215
200
205
215
230
250
240
215
195
215
220
245
240
225
215
220
220
245
230
215
210
230
230
250
250
220
210
210
230
245
240
230
220
225
230
265
250
230
235
215
235
270
255
240
240
235
265
260
275
245
230
225
235
240
210
190
185
185
190
205
185
190
175
185
195
215
225
230
210
200
215
240
220
195
195
190
225
235
235
230
200
200
215
225
230
195
190
195
215
225
220
200
205
190
200
240
210
205
190
185
205
220
220
200
190
205
235
250
265
235
185
145
120
90
35
-20
-110
-170
-195
-190
-210
-205
-180
-120
-75
-10
60
120
155
190
230
230
240
235
215
215
225
240
220
220
215
215
235
240
225
215
210
200
220
225
235
220
210
205
215
225
225
215
200
195
205
220
210
205
180
175
200
215
205
190
180
185
185
190
195
170
170
150
165
185
175
160
145
155
170
185
170
190
160
190
205
225
205
190
195
215
210
235
230
215
210
215
230
245
235
220
205
230
235
255
245
235
210
220
230
260
245
220
205
220
235
230
245
230
220
215
225
245
230
205
205
210
225
260
245
240
220
230
240
265
